-0.0000000 -0.0000000 -0.0000000 -0.0000000 -0.0000000 -0.0000000 -0.0000000 -0.0000000 -0.0000000 -0.0000000 -0.0000000 -0.0000000 -0.0000000 -0.0000000 -0.0000000 -0.0000000 -0.0000000 -0.0000000 -0.0000000 -0.0000000 -0.0000000 -0.0000000 -0.0000000 -0.0000000 -0.0000000 -0.0000000
-0.0000000 -0.0000000 -0.0000000 -0.0000000 -0.0000000 -0.0000000 -0.0000000 -0.0000000 -0.0000000 -0.0000000 -0.0000000 -0.0000000 -0.0000000 -0.0000000 -0.0000000 -0.0000000 -0.0000000 -0.0000000 -0.0000000 -0.0000000 -0.0000000 -0.0000000 -0.0000000 -0.0000000 -0.0000000 -0.0000000
-0.0000024 -0.0000786 0.0000004 -0.0001576 0.0000028 -0.0000977 -0.0000079 -0.0002217 -0.0000084 -0.0001241 -0.0000209 -0.0002821 0.0000020 -0.0001479 -0.0000094 -0.0001199 -0.0000168 -0.0000781 -0.0000012 -0.0001247 0.0000146 -0.0001047 0.0000017 -0.0000843 0.0000007 -0.0000830
0.0000181 -0.0001475 0.0000071 -0.0001963 0.0000199 -0.0001729 -0.0000038 -0.0001996 0.0000055 -0.0001365 -0.0000037 -0.0001545 -0.0000008 -0.0000762 -0.0000088 -0.0000832 -0.0000053 -0.0000527 0.0000014 -0.0000267 -0.0000245 -0.0000581 -0.0000058 -0.0000054 -0.0000061 -0.0000221
-0.0000105 -0.0000701 -0.0000014 -0.0000686 -0.0000106 -0.0001031 -0.0000049 -0.0000600 -0.0000010 -0.0000585 0.0000019 -0.0000067 -0.0000029 -0.0000007 -0.0000003 -0.0000372 0.0000083 -0.0000106 0.0000115 0.0000480 -0.0000086 -0.0000527 -0.0000088 0.0000567 0.0000026 0.0000152
-0.0000026 -0.0000258 -0.0000064 0.0000154 -0.0000032 -0.0000592 -0.0000030 0.0000229 0.0000046 -0.0000166 0.0000039 0.0000733 -0.0000042 0.0000508 -0.0000174 0.0000121 -0.0000176 0.0000353 0.0000044 0.0001109 -0.0000112 -0.0000283 -0.0000109 0.0001159 0.0000003 0.0000796
0.0000051 0.0000289 -0.0000088 0.0001169 -0.0000066 0.0000220 0.0000044 0.0001381 0.0000165 0.0000461 0.0000129 0.0001853 -0.0000083 0.0001268 -0.0000197 0.0000651 0.0000001 0.0000597 -0.0000026 0.0001881 -0.0000383 0.0000458 -0.0000160 0.0002141 -0.0000057 0.0001627
-0.0000164 0.0001242 -0.0000109 0.0002452 -0.0000335 0.0001320 -0.0000005 0.0002646 -0.0000020 0.0001183 0.0000029 0.0002133 -0.0000069 0.0001180 -0.0000154 0.0000659 0.0000054 0.0000823 0.0000099 0.0000988 -0.0000170 -0.0000478 0.0000006 0.0001296 0.0000016 0.0000573
0.0000082 0.0000504 -0.0000056 0.0000990 0.0000032 0.0000343 -0.0000027 0.0000445 -0.0000076 -0.0000206 -0.0000202 -0.0000941 -0.0000018 -0.0000701 -0.0000149 -0.0000797 -0.0000107 0.0000014 0.0000181 -0.0001238 -0.0000168 -0.0002398 0.0000158 -0.0001140 -0.0000042 -0.0001637
0.0000098 -0.0001359 0.0000013 -0.0002103 0.0000022 -0.0001632 -0.0000083 -0.0002989 -0.0000081 -0.0002184 -0.0000246 -0.0003202 0.0000014 -0.0001759 -0.0000040 -0.0001976 0.0000081 -0.0001054 0.0000081 -0.0001383 -0.0000483 -0.0002830 0.0000009 -0.0001276 -0.0000099 -0.0001811
-0.0000048 -0.0001598 -0.0000005 -0.0001962 -0.0000124 -0.0001968 -0.0000099 -0.0002676 -0.0000129 -0.0002081 -0.0000149 -0.0001998 0.0000037 -0.0001174 -0.0000112 -0.0001662 0.0000023 -0.0000790 0.0000126 -0.0000514 -0.0000514 -0.0002897 -0.0000011 -0.0000429 -0.0000085 -0.0001299
0.0000120 -0.0001195 -0.0000028 -0.0000813 0.0000040 -0.0001639 0.0000018 -0.0001661 0.0000019 -0.0001708 -0.0000028 -0.0000950 0.0000013 -0.0000579 -0.0000253 -0.0001254 -0.0000058 -0.0000321 0.0000159 0.0000201 -0.0000654 -0.0002843 0.0000046 0.0000231 -0.0000111 -0.0000801
0.0000039 -0.0000585 -0.0000047 0.0000186 -0.0000244 -0.0000855 -0.0000037 -0.0000464 -0.0000039 -0.0001111 0.0000069 0.0000292 0.0000050 0.0000156 -0.0000192 -0.0000828 0.0000212 -0.0000023 0.0000198 0.0001601 -0.0001583 -0.0004783 -0.0000053 0.0001082 -0.0000034 0.0000344
-0.0000002 0.0000298 -0.0000081 0.0001554 -0.0000232 0.0000020 -0.0000067 0.0001245 -0.0000055 -0.0000207 0.0000101 0.0001892 0.0000077 0.0000921 -0.0000299 -0.0000169 0.0000060 0.0000575 0.0000451 0.0002707 -0.0002737 -0.0007974 -0.0000024 0.0001032 -0.0000029 0.0000215
0.0000085 0.0000317 -0.0000110 0.0001142 -0.0000045 0.0000042 0.0000017 -0.0000047 0.0000027 -0.0000980 -0.0000152 -0.0000781 0.0000028 -0.0000776 -0.0000235 -0.0001396 0.0000014 -0.0000276 0.0000465 0.0000547 -0.0001902 -0.0006264 0.0000161 -0.0001067 -0.0000187 -0.0002330
-0.0000004 -0.0001353 -0.0000049 -0.0001985 -0.0000192 -0.0001679 -0.0000037 -0.0003947 -0.0000103 -0.0003194 -0.0000400 -0.0005182 0.0000179 -0.0003508 0.0000020 -0.0003595 0.0000254 -0.0001916 0.0000614 -0.0001173 0.0001905 0.0004648 0.0000201 -0.0002617 -0.0000203 -0.0003975
0.0000114 -0.0002771 0.0000064 -0.0003701 -0.0000096 -0.0003348 -0.0000003 -0.0004711 -0.0000086 -0.0003783 -0.0000220 -0.0004548 0.0000327 -0.0003456 -0.0000071 -0.0003693 0.0000314 -0.0001622 0.0001054 0.0000363 0.0005233 0.0015969 0.0000240 -0.0002110 -0.0000176 -0.0003722
0.0000270 -0.0002719 0.0000071 -0.0002968 -0.0000056 -0.0003398 0.0000083 -0.0003486 0.0000056 -0.0003234 -0.0000048 -0.0002984 0.0000293 -0.0002733 -0.0000158 -0.0003250 0.0000420 -0.0001303 0.0000806 0.0000385 0.0004884 0.0015080 0.0000151 -0.0001494 -0.0000166 -0.0003022
0.0000068 -0.0002194 0.0000002 -0.0001937 -0.0000265 -0.0002926 0.0000001 -0.0002410 0.0000013 -0.0002560 0.0000030 -0.0001871 0.0000214 -0.0002085 -0.0000103 -0.0002838 0.0000292 -0.0001355 0.0000555 0.0001438 0.0002872 0.0009508 -0.0000033 -0.0000883 -0.0000169 -0.0002337
0.0000098 -0.0001479 -0.0000036 -0.0000634 -0.0000154 -0.0002118 0.0000050 -0.0000911 0.0000101 -0.0001641 0.0000143 -0.0000156 0.0000192 -0.0001027 -0.0000151 -0.0002030 0.0000120 -0.0000928 0.0000465 0.0002349 0.0001174 0.0004778 -0.0000066 0.0000119 -0.0000231 -0.0001571
0.0000090 -0.0000609 -0.0000084 0.0000556 -0.0000208 -0.0000864 0.0000123 -0.0000521 0.0000200 -0.0001398 -0.0000064 -0.0001492 0.0000234 -0.0001889 -0.0000046 -0.0002507 0.0000277 -0.0001464 0.0000135 -0.0000886 0.0000319 0.0000048 0.0000102 -0.0001400 -0.0000192 -0.0002973
-0.0000007 -0.0001702 -0.0000040 -0.0001904 -0.0000285 -0.0001939 0.0000005 -0.0003754 0.0000009 -0.0003204 -0.0000368 -0.0005625 0.0000352 -0.0004700 0.0000234 -0.0004691 0.0000369 -0.0003160 0.0000201 -0.0003428 0.0001156 0.0000372 0.0000207 -0.0004396 -0.0000149 -0.0005755
0.0000181 -0.0004049 0.0000132 -0.0005741 -0.0000073 -0.0004493 0.0000045 -0.0006966 0.0000085 -0.0005156 -0.0000234 -0.0006642 0.0000450 -0.0005510 0.0000266 -0.0005598 0.0000381 -0.0003826 0.0000304 -0.0003154 0.0001593 0.0001386 0.0000142 -0.0004350 -0.0000203 -0.0006059
0.0000140 -0.0004295 0.0000170 -0.0005566 -0.0000190 -0.0004743 0.0000075 -0.0006329 0.0000161 -0.0004976 -0.0000009 -0.0005210 0.0000521 -0.0004702 0.0000271 -0.0005048 0.0000498 -0.0003403 0.0000491 -0.0001465 0.0001454 0.0002319 0.0000064 -0.0003365 -0.0000219 -0.0005192
0.0000108 -0.0003751 0.0000127 -0.0004060 -0.0000198 -0.0004238 -0.0000013 -0.0004738 0.0000079 -0.0004128 0.0000083 -0.0003705 0.0000591 -0.0003832 0.0000311 -0.0004365 0.0000356 -0.0002902 0.0000709 0.0000276 0.0001540 0.0003079 -0.0000024 -0.0002453 -0.0000181 -0.0004165
0.0000225 -0.0003236 0.0000112 -0.0002737 -0.0000030 -0.0003637 0.0000050 -0.0003168 0.0000206 -0.0003256 0.0000247 -0.0001928 0.0000588 -0.0002657 0.0000287 -0.0003479 0.0000310 -0.0002347 0.0000634 0.0001398 0.0001229 0.0002050 -0.0000078 -0.0001062 -0.0000160 -0.0002774
0.0000179 -0.0002208 0.0000041 -0.0000927 -0.0000242 -0.0002215 0.0000078 -0.0001077 0.0000230 -0.0002072 0.0000362 -0.0000277 0.0000563 -0.0001923 0.0000318 -0.0002843 0.0000428 -0.0001969 0.0000533 0.0001037 0.0001087 0.0001810 0.0000026 -0.0001548 -0.0000139 -0.0003162
0.0000187 -0.0002498 0.0000044 -0.0001945 -0.0000156 -0.0002544 0.0000085 -0.0003064 0.0000206 -0.0003207 0.0000024 -0.0003417 0.0000664 -0.0004114 0.0000439 -0.0004347 0.0000361 -0.0003163 0.0000577 -0.0001300 0.0001195 0.0001003 0.0000157 -0.0004237 -0.0000102 -0.0005630
0.0000237 -0.0004538 0.0000235 -0.0005924 0.0000077 -0.0004788 0.0000116 -0.0007767 0.0000177 -0.0005840 -0.0000180 -0.0007912 0.0000795 -0.0006824 0.0000647 -0.0006488 0.0000601 -0.0005085 0.0000693 -0.0002192 0.0001278 0.0000422 0.0000108 -0.0005493 -0.0000098 -0.0006760
0.0000159 -0.0005585 0.0000331 -0.0007185 -0.0000148 -0.0005636 0.0000080 -0.0008274 0.0000082 -0.0006132 0.0000032 -0.0006961 0.0000837 -0.0006369 0.0000694 -0.0006359 0.0000728 -0.0005120 0.0000756 -0.0000733 0.0001125 0.0000599 0.0000071 -0.0004790 -0.0000086 -0.0006250
0.0000304 -0.0005289 0.0000338 -0.0005911 -0.0000095 -0.0005217 0.0000108 -0.0006712 0.0000155 -0.0005356 0.0000202 -0.0004955 0.0000880 -0.0005097 0.0000671 -0.0005503 0.0000609 -0.0004313 0.0000857 0.0000906 0.0001266 0.0001654 0.0000035 -0.0003777 -0.0000092 -0.0005440
0.0000401 -0.0004569 0.0000342 -0.0004505 -0.0000005 -0.0004527 0.0000184 -0.0005112 0.0000318 -0.0004565 0.0000325 -0.0003354 0.0000880 -0.0004072 0.0000632 -0.0004748 0.0000723 -0.0003776 0.0000863 0.0002256 0.0001637 0.0003056 -0.0000040 -0.0002645 -0.0000080 -0.0004306
0.0000276 -0.0003536 0.0000283 -0.0002757 -0.0000191 -0.0003382 0.0000176 -0.0002882 0.0000280 -0.0003216 0.0000397 -0.0001122 0.0000859 -0.0002806 0.0000481 -0.0003740 0.0000652 -0.0002986 0.0000676 0.0003666 0.0001233 0.0003360 -0.0000155 -0.0001114 -0.0000081 -0.0002841
0.0000438 -0.0002434 0.0000241 -0.0000734 0.0000020 -0.0002086 0.0000196 -0.0000529 0.0000375 -0.0001873 0.0000396 0.0000319 0.0000882 -0.0002327 0.0000500 -0.0003254 0.0000572 -0.0002436 0.0000592 0.0002802 0.0000697 0.0001544 -0.0000030 -0.0001856 -0.0000144 -0.0003436
0.0000502 -0.0002970 0.0000290 -0.0002287 0.0000089 -0.0002438 0.0000226 -0.0002919 0.0000420 -0.0003090 0.0000108 -0.0003386 0.0000996 -0.0005006 0.0000689 -0.0005084 0.0000852 -0.0003979 0.0000429 -0.0000511 0.0000471 -0.0001362 0.0000176 -0.0004845 -0.0000136 -0.0006144
0.0000466 -0.0005246 0.0000475 -0.0006877 0.0000012 -0.0004514 0.0000113 -0.0007934 0.0000202 -0.0005584 -0.0000169 -0.0007797 0.0001114 -0.0007743 0.0000787 -0.0007100 0.0000934 -0.0005788 0.0000271 -0.0001980 0.0000461 -0.0002221 0.0000109 -0.0005859 -0.0000110 -0.0007136
0.0000675 -0.0006389 0.0000640 -0.0008123 0.0000319 -0.0005731 0.0000163 -0.0008352 0.0000301 -0.0005908 -0.0000006 -0.0006654 0.0001136 -0.0007084 0.0000865 -0.0006764 0.0000858 -0.0005603 0.0000301 -0.0001096 0.0000624 -0.0001799 0.0000062 -0.0004982 -0.0000097 -0.0006399
0.0000581 -0.0005870 0.0000637 -0.0006750 0.0000174 -0.0005211 0.0000210 -0.0006670 0.0000381 -0.0005148 0.0000185 -0.0004575 0.0001172 -0.0005777 0.0000952 -0.0005916 0.0001015 -0.0005062 0.0000190 -0.0000063 0.0000639 -0.0001742 0.0000035 -0.0003827 -0.0000027 -0.0005360
0.0000572 -0.0005100 0.0000591 -0.0005288 0.0000065 -0.0004252 0.0000165 -0.0005043 0.0000329 -0.0004156 0.0000237 -0.0002884 0.0001169 -0.0004561 0.0000762 -0.0004977 0.0000805 -0.0004277 0.0000131 0.0001317 0.0000600 -0.0000878 -0.0000056 -0.0002460 -0.0000017 -0.0003977
0.0000748 -0.0004170 0.0000544 -0.0003402 0.0000356 -0.0003276 0.0000304 -0.0002835 0.0000516 -0.0002857 0.0000373 -0.0000639 0.0001160 -0.0003088 0.0000646 -0.0003884 0.0000734 -0.0003271 0.0000303 0.0003457 0.0000982 0.0001578 -0.0000134 -0.0000887 -0.0000051 -0.0002401
0.0000621 -0.0002793 0.0000465 -0.0001252 0.0000217 -0.0001661 0.0000340 -0.0000176 0.0000541 -0.0001174 0.0000451 0.0001742 0.0001094 -0.0001648 0.0000550 -0.0002798 0.0000957 -0.0002401 0.0000387 0.0004893 0.0001172 0.0003027 -0.0000045 -0.0000150 -0.0000047 -0.0001836
0.0000700 -0.0002296 0.0000420 -0.0001017 0.0000320 -0.0001087 0.0000258 -0.0000853 0.0000460 -0.0001361 0.0000048 -0.0000873 0.0001101 -0.0003523 0.0000444 -0.0003771 0.0000832 -0.0003072 0.0000205 0.0002388 0.0001106 0.0002383 0.0000112 -0.0002528 -0.0000107 -0.0003914
0.0000858 -0.0004171 0.0000575 -0.0004963 0.0000555 -0.0002879 0.0000232 -0.0005348 0.0000495 -0.0003683 -0.0000300 -0.0005886 0.0001225 -0.0007175 0.0000758 -0.0006274 0.0001045 -0.0005174 -0.0000175 -0.0001514 0.0002232 0.0004099 0.0000154 -0.0005158 -0.0000118 -0.0005901
0.0000675 -0.0005994 0.0000749 -0.0008251 0.0000171 -0.0004266 0.0000217 -0.0007334 0.0000419 -0.0004559 -0.0000188 -0.0005748 0.0001225 -0.0007344 0.0000761 -0.0006551 0.0001171 -0.0005659 -0.0000424 -0.0001248 0.0002546 0.0005643 0.0000075 -0.0004863 -0.0000072 -0.0005570
0.0000808 -0.0005945 0.0000779 -0.0007424 0.0000237 -0.0004106 0.0000153 -0.0006050 0.0000441 -0.0003940 -0.0000076 -0.0003868 0.0001238 -0.0006080 0.0000591 -0.0005606 0.0000929 -0.0005046 0.0001054 0.0006812 -0.0008199 -0.0023259 -0.0000025 -0.0004080 -0.0000273 -0.0005213
0.0000908 -0.0005404 0.0000709 -0.0005892 0.0000403 -0.0003414 0.0000146 -0.0004457 0.0000597 -0.0003110 0.0000016 -0.0002295 0.0001294 -0.0005015 0.0000752 -0.0004886 0.0001037 -0.0004726 0.0002068 0.0012875 -0.0018927 -0.0057302 -0.0000088 -0.0002972 -0.0000355 -0.0004197
0.0000687 -0.0004469 0.0000550 -0.0004271 0.0000101 -0.0002265 0.0000171 -0.0002141 0.0000578 -0.0001564 0.0000080 -0.0000199 0.0001298 -0.0003602 0.0000575 -0.0003606 0.0001202 -0.0003398 0.0002355 0.0017139 -0.0023908 -0.0078164 0.0000005 -0.0000793 -0.0000082 -0.0001586
0.0000990 -0.0003444 0.0000482 -0.0002226 0.0000319 -0.0001048 0.0000291 0.0000970 0.0000762 0.0000344 0.0000076 0.0002134 0.0001230 -0.0002157 0.0000258 -0.0001905 0.0001118 -0.0001738 0.0002344 0.0020850 -0.0035710 -0.0099382 0.0000097 0.0001557 0.0000116 0.0001548
0.0000931 -0.0002282 0.0000347 -0.0000195 0.0000379 0.0000300 0.0000415 0.0003691 0.0001000 0.0002093 0.0000109 0.0004209 0.0001141 -0.0001159 0.0000368 -0.0000594 0.0001058 -0.0001736 0.0001527 0.0020359 -0.0031662 -0.0093964 0.0000166 0.0001666 0.0000252 0.0002505
0.0000576 -0.0002569 0.0000201 -0.0001240 0.0000234 0.0000206 0.0000181 0.0001481 0.0000712 0.0001427 -0.0000287 0.0000819 0.0001123 -0.0003416 0.0000458 -0.0001985 0.0000661 -0.0003975 0.0001448 0.0019991 -0.0025040 -0.0080533 0.0000216 -0.0000907 0.0000324 0.0000582
0.0000745 -0.0005188 0.0000300 -0.0005680 0.0000516 -0.0002034 0.0000009 -0.0003797 0.0000665 -0.0001163 -0.0000682 -0.0004245 0.0001163 -0.0006536 0.0000505 -0.0004396 0.0000295 -0.0006319 0.0001452 0.0019266 -0.0031823 -0.0068449 0.0000135 -0.0002412 0.0000327 -0.0000347
0.0000658 -0.0006610 0.0000412 -0.0007668 0.0000348 -0.0003247 0.0000046 -0.0004777 0.0000813 -0.0001681 -0.0000491 -0.0003606 0.0001143 -0.0006087 0.0000667 -0.0004367 0.0000542 -0.0006679 0.0001377 0.0019555 -0.0026080 -0.0069378 0.0000100 -0.0001463 0.0000423 0.0000609
0.0000544 -0.0006142 0.0000350 -0.0006455 0.0000187 -0.0002802 0.0000003 -0.0003319 0.0000717 -0.0000808 -0.0000392 -0.0001704 0.0001023 -0.0004660 0.0000432 -0.0003340 0.0000202 -0.0006141 0.0000976 0.0019672 -0.0021007 -0.0064728 -0.0000045 -0.0000157 0.0000561 0.0002164
0.0000784 -0.0005572 0.0000289 -0.0004937 0.0000458 -0.0002166 0.0000031 -0.0001889 0.0000839 -0.0000030 -0.0000378 -0.0000094 0.0000928 -0.0003315 0.0000338 -0.0002412 -0.0000091 -0.0005493 0.0000675 0.0020270 -0.0026981 -0.0052143 -0.0000244 0.0001267 0.0000581 0.0004017
0.0000573 -0.0004438 0.0000188 -0.0003099 0.0000264 -0.0000884 -0.0000003 0.0000191 0.0000864 0.0001209 -0.0000267 0.0001975 0.0000852 -0.0001643 0.0000410 -0.0001383 0.0000159 -0.0004901 0.0000356 0.0020777 -0.0017510 -0.0051395 -0.0000352 0.0002985 0.0000702 0.0005864
0.0000453 -0.0003051 0.0000031 -0.0000808 0.0000212 0.0000614 -0.0000084 0.0002661 0.0000760 0.0002856 -0.0000192 0.0004206 0.0000677 0.0000109 0.0000071 -0.0000003 -0.0000248 -0.0003837 -0.0000079 0.0021236 -0.0017812 -0.0043920 -0.0000455 0.0004761 0.0000764 0.0007577
0.0000726 -0.0001821 -0.0000073 0.0001369 0.0000533 0.0001979 -0.0000053 0.0004917 0.0000933 0.0004185 -0.0000183 0.0005829 0.0000592 0.0000854 0.0000076 0.0000690 -0.0000410 -0.0003394 -0.0000222 0.0020598 -0.0022636 -0.0034125 -0.0000359 0.0004039 0.0000663 0.0006987
0.0000491 -0.0002077 -0.0000094 -0.0000207 0.0000360 0.0001816 -0.0000173 0.0002415 0.0000842 0.0002865 -0.0000533 0.0002144 0.0000643 -0.0001700 0.0000235 -0.0001154 -0.0000113 -0.0005073 -0.0000293 0.0017823 -0.0012218 -0.0038656 -0.0000182 0.0000880 0.0000756 0.0004478
0.0000549 -0.0004268 0.0000066 -0.0004681 0.0000430 -0.0000378 -0.0000316 -0.0002523 0.0000616 0.0000341 -0.0000888 -0.0002516 0.0000658 -0.0004396 0.0000043 -0.0003195 -0.0000312 -0.0006537 -0.0000502 0.0015931 -0.0015371 -0.0035713 -0.0000265 -0.0000291 0.0000764 0.0003676
0.0000874 -0.0005368 0.0000177 -0.0005843 0.0000705 -0.0001612 -0.0000175 -0.0002967 0.0000811 -0.0000057 -0.0000720 -0.0001612 0.0000623 -0.0003738 0.0000096 -0.0003017 -0.0000223 -0.0006305 -0.0000665 0.0015601 -0.0019449 -0.0029714 -0.0000413 0.0000559 0.0000727 0.0004484
0.0000588 -0.0004573 0.0000095 -0.0004414 0.0000347 -0.0000894 -0.0000233 -0.0001379 0.0000735 0.0000652 -0.0000539 0.0000125 0.0000562 -0.0002431 0.0000106 -0.0002212 -0.0000033 -0.0005655 -0.0000768 0.0015918 -0.0009631 -0.0031374 -0.0000473 0.0001736 0.0000845 0.0005420
0.0000647 -0.0003707 -0.0000016 -0.0002904 0.0000402 -0.0000180 -0.0000357 0.0000249 0.0000682 0.0001511 -0.0000546 0.0001599 0.0000484 -0.0001231 -0.0000289 -0.0001226 -0.0000454 -0.0004516 -0.0000849 0.0016795 -0.0013187 -0.0027390 -0.0000550 0.0003155 0.0000832 0.0006632
0.0000805 -0.0002720 -0.0000128 -0.0001017 0.0000625 0.0000769 -0.0000233 0.0002332 0.0000870 0.0002627 -0.0000444 0.0003547 0.0000390 0.0000297 -0.0000307 -0.0000212 -0.0000374 -0.0003541 -0.0000937 0.0017410 -0.0015171 -0.0024535 -0.0000654 0.0004806 0.0000762 0.0008077
0.0000486 -0.0001140 -0.0000235 0.0001159 0.0000345 0.0002488 -0.0000306 0.0004847 0.0000768 0.0004225 -0.0000320 0.0005607 0.0000219 0.0001882 -0.0000364 0.0000990 -0.0000301 -0.0002760 -0.0000983 0.0018355 -0.0006541 -0.0026042 -0.0000712 0.0006410 0.0000791 0.0009288
0.0000644 -0.0000069 -0.0000331 0.0002791 0.0000548 0.0003567 -0.0000439 0.0005715 0.0000769 0.0004696 -0.0000537 0.0004481 0.0000114 0.0001006 -0.0000551 0.0000638 -0.0000757 -0.0002984 -0.0001050 0.0016406 -0.0014790 -0.0018605 -0.0000617 0.0004483 0.0000749 0.0007756
0.0000792 -0.0001366 -0.0000289 0.0000038 0.0000725 0.0002097 -0.0000445 0.0001988 0.0000781 0.0002546 -0.0000826 0.0000253 0.0000138 -0.0001982 -0.0000306 -0.0001700 -0.0000500 -0.0004957 -0.0001321 0.0011141 -0.0013097 -0.0017558 -0.0000479 0.0001120 0.0000765 0.0005140
0.0000475 -0.0003401 -0.0000169 -0.0004052 0.0000433 -0.0000133 -0.0000544 -0.0001629 0.0000573 0.0000601 -0.0000801 -0.0001256 0.0000051 -0.0002667 -0.0000453 -0.0002570 -0.0000528 -0.0005777 -0.0001910 0.0006811 -0.0002836 -0.0018780 -0.0000568 0.0001214 0.0000873 0.0005215
0.0000714 -0.0003536 -0.0000171 -0.0003598 0.0000696 -0.0000359 -0.0000582 -0.0000902 0.0000602 0.0000688 -0.0000612 0.0000118 -0.0000017 -0.0001485 -0.0000711 -0.0001864 -0.0000808 -0.0004720 -0.0002771 0.0002989 -0.0010226 -0.0008594 -0.0000635 0.0002520 0.0000758 0.0006004
0.0000789 -0.0002620 -0.0000209 -0.0001888 0.0000782 0.0000222 -0.0000500 0.0000765 0.0000713 0.0001197 -0.0000442 0.0001492 -0.0000011 -0.0000363 -0.0000575 -0.0001190 -0.0000307 -0.0003747 -0.0003234 0.0000550 -0.0006380 -0.0009247 -0.0000579 0.0003739 0.0000701 0.0006587
0.0000546 -0.0001583 -0.0000291 -0.0000408 0.0000432 0.0001089 -0.0000556 0.0002522 0.0000583 0.0002091 -0.0000399 0.0002961 -0.0000111 0.0000908 -0.0000788 -0.0000147 -0.0000324 -0.0002581 -0.0002938 0.0002050 -0.0002289 -0.0013087 -0.0000556 0.0005156 0.0000852 0.0007814
0.0000920 -0.0000457 -0.0000340 0.0001682 0.0000668 0.0002043 -0.0000452 0.0004882 0.0000712 0.0003158 -0.0000271 0.0004947 -0.0000125 0.0002532 -0.0001065 0.0001127 -0.0000332 -0.0000553 0.0000095 0.0012858 -0.0010317 -0.0020857 -0.0000567 0.0007106 0.0001082 0.0010266
0.0000833 0.0001389 -0.0000335 0.0004064 0.0000639 0.0003544 -0.0000345 0.0007261 0.0000726 0.0004081 -0.0000070 0.0006796 -0.0000074 0.0003693 -0.0000848 0.0001866 0.0000289 0.0000938 0.0003186 0.0021533 -0.0009728 -0.0032358 -0.0000280 0.0006966 0.0001220 0.0010087
0.0000709 0.0001636 -0.0000276 0.0003060 0.0000641 0.0003356 -0.0000499 0.0005066 0.0000412 0.0002608 -0.0000398 0.0003477 -0.0000094 0.0001398 -0.0000924 0.0000304 0.0000289 0.0000358 0.0002867 0.0017640 -0.0002738 -0.0018362 0.0000007 0.0003890 0.0001101 0.0006686
0.0001148 -0.0000457 -0.0000050 -0.0001016 0.0001084 0.0000733 -0.0000489 0.0000252 0.0000471 -0.0000410 -0.0000639 -0.0001123 -0.0000131 -0.0001448 -0.0001079 -0.0001854 0.0000194 -0.0000943 0.0002091 0.0014637 0.0001237 -0.0004173 -0.0000085 0.0002411 0.0000854 0.0004967
0.0000919 -0.0001172 0.0000018 -0.0002090 0.0000793 -0.0000228 -0.0000533 -0.0000194 0.0000393 -0.0000985 -0.0000374 -0.0000328 -0.0000231 -0.0000833 -0.0000931 -0.0001969 0.0000445 -0.0001120 0.0002440 0.0017735 0.0001248 -0.0004751 -0.0000133 0.0002987 0.0000676 0.0004487
0.0000786 -0.0000497 -0.0000094 -0.0000690 0.0000613 0.0000186 -0.0000700 0.0001325 0.0000273 -0.0000484 -0.0000230 0.0001271 -0.0000368 0.0000464 -0.0001254 -0.0001301 0.0000065 -0.0000251 0.0002332 0.0018042 0.0001632 -0.0002153 -0.0000227 0.0003404 0.0000624 0.0004466
0.0001096 0.0000130 -0.0000147 0.0000697 0.0000930 0.0000635 -0.0000595 0.0002531 0.0000533 -0.0000155 -0.0000110 0.0002546 -0.0000433 0.0001554 -0.0001353 -0.0000685 -0.0000022 0.0000652 0.0002099 0.0016984 0.0002752 0.0003705 -0.0000454 0.0004249 0.0000534 0.0005527
0.0000811 0.0001353 -0.0000259 0.0002478 0.0000725 0.0001795 -0.0000548 0.0004449 0.0000530 0.0000792 0.0000020 0.0004316 -0.0000519 0.0002972 -0.0001271 0.0000199 0.0000266 0.0001361 0.0002588 0.0018979 0.0006379 0.0015118 -0.0000519 0.0005661 0.0000609 0.0006800
0.0000826 0.0002624 -0.0000374 0.0004549 0.0000826 0.0003015 -0.0000669 0.0006887 0.0000424 0.0002190 0.0000075 0.0006313 -0.0000639 0.0004229 -0.0001623 0.0001334 -0.0000192 0.0002516 0.0002901 0.0019631 0.0009800 0.0028081 -0.0000354 0.0005376 0.0000557 0.0006330
0.0001057 0.0002549 -0.0000423 0.0003912 0.0001185 0.0002768 -0.0000710 0.0005162 0.0000481 0.0001165 -0.0000181 0.0003155 -0.0000575 0.0002098 -0.0001505 -0.0000256 -0.0000078 0.0001515 0.0003034 0.0016328 0.0011237 0.0033150 -0.0000186 0.0002480 0.0000361 0.0003690
0.0000664 0.0000913 -0.0000335 0.0000109 0.0000808 0.0000859 -0.0000753 0.0000505 0.0000296 -0.0001544 -0.0000449 -0.0001708 -0.0000502 -0.0000964 -0.0001350 -0.0002800 0.0000284 -0.0000326 0.0003172 0.0013011 0.0012857 0.0037180 -0.0000206 0.0000541 0.0000441 0.0001887
0.0000838 -0.0000488 -0.0000220 -0.0001621 0.0000937 -0.0000813 -0.0000700 -0.0000507 0.0000260 -0.0002403 -0.0000319 -0.0001074 -0.0000582 -0.0000538 -0.0001696 -0.0002721 -0.0000159 0.0000092 0.0003235 0.0013009 0.0014360 0.0044027 -0.0000308 0.0001020 0.0000352 0.0001945
0.0001081 -0.0000340 -0.0000257 -0.0000520 0.0001231 -0.0000895 -0.0000642 0.0000721 0.0000470 -0.0002152 -0.0000088 0.0000575 -0.0000637 0.0000685 -0.0001581 -0.0002254 -0.0000037 0.0000501 0.0003290 0.0013620 0.0015547 0.0049292 -0.0000384 0.0001810 0.0000208 0.0002507
0.0000639 0.0000625 -0.0000354 0.0000910 0.0000747 -0.0000005 -0.0000775 0.0002182 0.0000300 -0.0001405 0.0000058 0.0001892 -0.0000670 0.0001670 -0.0001520 -0.0001819 0.0000085 0.0000847 0.0003305 0.0013954 0.0016082 0.0051273 -0.0000422 0.0002751 0.0000325 0.0003272
0.0000770 0.0001465 -0.0000432 0.0002611 0.0000910 0.0000798 -0.0000695 0.0004108 0.0000365 -0.0000318 0.0000178 0.0003727 -0.0000772 0.0003011 -0.0001938 -0.0000704 -0.0000409 0.0001836 0.0003199 0.0014880 0.0016246 0.0054098 -0.0000504 0.0004140 0.0000282 0.0004440
0.0000770 0.0002674 -0.0000542 0.0004679 0.0000940 0.0002298 -0.0000556 0.0006351 0.0000634 0.0000908 0.0000365 0.0005634 -0.0000864 0.0004203 -0.0001821 0.0000179 -0.0000239 0.0002408 0.0003396 0.0015205 0.0016919 0.0056678 -0.0000417 0.0003945 0.0000125 0.0004090
0.0000419 0.0002925 -0.0000606 0.0004089 0.0000765 0.0002490 -0.0000736 0.0004683 0.0000362 0.0000067 0.0000035 0.0002448 -0.0000867 0.0002103 -0.0001690 -0.0001380 -0.0000217 0.0001224 0.0003560 0.0012139 0.0017267 0.0055223 -0.0000221 0.0001051 0.0000123 0.0001341
0.0000795 0.0000679 -0.0000454 0.0000288 0.0001272 -0.0000146 -0.0000783 -0.0000056 0.0000309 -0.0002763 -0.0000255 -0.0002479 -0.0000820 -0.0000955 -0.0001840 -0.0003708 -0.0000501 -0.0000436 0.0003426 0.0009061 0.0016738 0.0052904 -0.0000268 -0.0000869 0.0000040 -0.0000364
0.0000751 -0.0000743 -0.0000328 -0.0001541 0.0001090 -0.0001685 -0.0000721 -0.0001132 0.0000386 -0.0003670 0.0000034 -0.0001945 -0.0000787 -0.0000634 -0.0001677 -0.0003888 -0.0000180 -0.0000636 0.0003530 0.0009547 0.0016697 0.0052786 -0.0000356 -0.0000301 0.0000010 -0.0000041
0.0000462 -0.0000297 -0.0000355 -0.0000459 0.0000857 -0.0001456 -0.0000766 0.0000161 0.0000226 -0.0003021 0.0000200 -0.0000126 -0.0000824 0.0000640 -0.0001839 -0.0003092 -0.0000443 0.0000063 0.0003644 0.0010702 0.0017152 0.0054444 -0.0000351 0.0000659 0.0000125 0.0000734
0.0000780 0.0000231 -0.0000385 0.0001055 0.0001232 -0.0001018 -0.0000674 0.0001453 0.0000407 -0.0002392 0.0000314 0.0001329 -0.0000865 0.0001717 -0.0001959 -0.0002305 -0.0000725 0.0000714 0.0003579 0.0011330 0.0017131 0.0055319 -0.0000392 0.0001753 0.0000044 0.0001630
0.0000586 0.0001303 -0.0000455 0.0002779 0.0000979 0.0000245 -0.0000625 0.0003464 0.0000473 -0.0001289 0.0000490 0.0003254 -0.0000852 0.0002940 -0.0001687 -0.0001517 -0.0000370 0.0001098 0.0003547 0.0012349 0.0015906 0.0051200 -0.0000418 0.0003250 -0.0000042 0.0002486
0.0000420 0.0002703 -0.0000537 0.0004850 0.0000873 0.0001797 -0.0000664 0.0006018 0.0000447 0.0000221 0.0000587 0.0005351 -0.0000928 0.0004086 -0.0001924 -0.0000286 -0.0000726 0.0001954 0.0003671 0.0013062 0.0014167 0.0045549 -0.0000263 0.0003071 -0.0000124 0.0001866
0.0000742 0.0002540 -0.0000521 0.0004221 0.0001238 0.0001708 -0.0000628 0.0004365 0.0000605 -0.0000725 0.0000300 0.0002155 -0.0000950 0.0002005 -0.0001941 -0.0001630 -0.0000798 0.0000825 0.0003631 0.0010041 0.0012910 0.0039744 -0.0000097 0.0000162 -0.0000253 -0.0000780
0.0000483 0.0000689 -0.0000397 0.0000513 0.0000982 -0.0000238 -0.0000649 -0.0000241 0.0000422 -0.0003239 0.0000049 -0.0002729 -0.0000819 -0.0001083 -0.0001613 -0.0004226 -0.0000372 -0.0001272 0.0003436 0.0006388 0.0012463 0.0035022 -0.0000092 -0.0001662 -0.0000211 -0.0002476
0.0000480 -0.0000581 -0.0000269 -0.0001110 0.0000994 -0.0001638 -0.0000681 -0.0001111 0.0000328 -0.0003870 0.0000233 -0.0001917 -0.0000792 -0.0000734 -0.0001848 -0.0004093 -0.0000681 -0.0001014 0.0003407 0.0006351 0.0012895 0.0036342 -0.0000137 -0.0001004 -0.0000216 -0.0002099
0.0000797 -0.0000389 -0.0000253 0.0000029 0.0001230 -0.0001430 -0.0000536 0.0000176 0.0000576 -0.0003464 0.0000505 -0.0000134 -0.0000747 0.0000395 -0.0001838 -0.0003366 -0.0000659 -0.0000360 0.0003486 0.0007400 0.0013572 0.0039554 -0.0000154 -0.0000013 -0.0000278 -0.0001211
0.0000488 0.0000494 -0.0000289 0.0001481 0.0000886 -0.0000599 -0.0000539 0.0001761 0.0000486 -0.0002519 0.0000657 0.0001228 -0.0000648 0.0001290 -0.0001689 -0.0002773 -0.0000382 0.0000196 0.0003510 0.0008412 0.0013895 0.0040942 -0.0000173 0.0001010 -0.0000163 -0.0000239
0.0000567 0.0001339 -0.0000277 0.0003082 0.0001020 0.0000279 -0.0000506 0.0003882 0.0000501 -0.0001190 0.0000718 0.0003242 -0.0000649 0.0002616 -0.0002027 -0.0001530 -0.0000730 0.0001320 0.0003001 0.0008747 0.0012387 0.0038120 -0.0000264 0.0002396 -0.0000111 0.0001232
0.0000730 0.0002456 -0.0000317 0.0005064 0.0001089 0.0001858 -0.0000343 0.0006286 0.0000806 0.0000203 0.0000834 0.0005467 -0.0000642 0.0004035 -0.0001919 -0.0000303 -0.0000507 0.0002049 0.0002449 0.0007898 0.0010810 0.0034032 -0.0000221 0.0002920 -0.0000169 0.0001973
0.0000364 0.0003149 -0.0000387 0.0005167 0.0000807 0.0002727 -0.0000459 0.0005336 0.0000617 -0.0000126 0.0000514 0.0002477 -0.0000542 0.0002090 -0.0001593 -0.0001563 -0.0000194 0.0000932 0.0002127 0.0003413 0.0010492 0.0029854 0.0000014 0.0000300 -0.0000023 -0.0000095
0.0000624 0.0001154 -0.0000233 0.0001604 0.0001163 0.0000484 -0.0000435 0.0000923 0.0000523 -0.0002583 0.0000225 -0.0002552 -0.0000421 -0.0001290 -0.0001723 -0.0003700 -0.0000503 -0.0000713 0.0001768 -0.0001139 0.0004977 0.0011210 0.0000143 -0.0002099 0.0000023 -0.0001897
0.0000810 -0.0000880 -0.0000067 -0.0000999 0.0001169 -0.0001491 -0.0000294 -0.0000683 0.0000633 -0.0003575 0.0000473 -0.0002212 -0.0000368 -0.0001252 -0.0001647 -0.0003733 -0.0000287 -0.0001003 0.0001684 -0.0000892 -0.0003563 -0.0015461 0.0000125 -0.0001405 -0.0000066 -0.0001370
0.0000469 -0.0000592 -0.0000057 -0.0000200 0.0000829 -0.0001225 -0.0000339 0.0000525 0.0000488 -0.0002792 0.0000561 -0.0000374 -0.0000350 -0.0000159 -0.0001640 -0.0002847 -0.0000325 -0.0000530 0.0001978 0.0000949 -0.0008321 -0.0034083 0.0000117 -0.0000397 0.0000091 -0.0000254
0.0000773 0.0000026 -0.0000077 0.0001193 0.0001036 -0.0000744 -0.0000237 0.0002221 0.0000643 -0.0001798 0.0000594 0.0000993 -0.0000264 0.0000566 -0.0001897 -0.0001753 -0.0000396 0.0000687 0.0002808 0.0006982 -0.0017895 -0.0057216 0.0000216 0.0000832 0.0000274 0.0001677
0.0000905 0.0000969 -0.0000129 0.0002710 0.0000899 0.0000142 -0.0000098 0.0004714 0.0000808 -0.0000273 0.0000691 0.0002782 -0.0000203 0.0001376 -0.0001844 -0.0000823 0.0000316 0.0001821 0.0002815 0.0011780 -0.0021576 -0.0079740 0.0000402 0.0003471 0.0000239 0.0003335
0.0000697 0.0002205 -0.0000235 0.0004675 0.0000656 0.0001570 -0.0000034 0.0007658 0.0000858 0.0001760 0.0000715 0.0005110 -0.0000274 0.0002433 -0.0002116 0.0000234 0.0000337 0.0002832 0.0002483 0.0015140 -0.0027053 -0.0084807 0.0000745 0.0006078 0.0000237 0.0004044
0.0000983 0.0002821 -0.0000342 0.0005405 0.0000901 0.0002139 0.0000137 0.0007820 0.0001090 0.0002109 0.0000419 0.0002816 -0.0000300 0.0000440 -0.0002312 -0.0000678 0.0000145 0.0002175 0.0002981 0.0017947 -0.0038784 -0.0087150 0.0001128 0.0004772 0.0000338 0.0002890
0.0000905 0.0001517 -0.0000280 0.0002076 0.0000568 0.0000374 0.0000156 0.0004437 0.0001121 0.0000448 0.0000032 -0.0001669 -0.0000228 -0.0003362 -0.0001969 -0.0003117 0.0000548 -0.0000251 0.0003580 0.0018218 -0.0027913 -0.0094610 0.0001249 0.0002719 0.0000467 0.0001704
0.0000772 -0.0000406 -0.0000157 -0.0001157 0.0000336 -0.0001473 0.0000097 0.0002688 0.0001025 -0.0000198 0.0000136 -0.0001542 -0.0000203 -0.0003665 -0.0002076 -0.0003342 0.0000299 -0.0000936 0.0003764 0.0019103 -0.0027071 -0.0080578 0.0001140 0.0003461 0.0000645 0.0003018
0.0001027 -0.0000806 -0.0000170 -0.0000500 0.0000646 -0.0001535 0.0000217 0.0003428 0.0001104 0.0000360 0.0000412 0.0000021 -0.0000176 -0.0002329 -0.0002162 -0.0002481 -0.0000052 -0.0000846 0.0003331 0.0018539 -0.0029973 -0.0061966 0.0000998 0.0004393 0.0000692 0.0004638
0.0000754 -0.0000319 -0.0000256 0.0000940 0.0000413 -0.0000888 0.0000125 0.0004621 0.0001031 0.0001123 0.0000569 0.0001308 -0.0000123 -0.0001078 -0.0001975 -0.0001734 -0.0000075 -0.0000911 0.0002914 0.0017713 -0.0017830 -0.0062521 0.0000906 0.0005425 0.0000806 0.0005902
0.0000632 0.0000369 -0.0000300 0.0002397 0.0000440 -0.0000063 0.0000067 0.0006414 0.0001047 0.0002276 0.0000672 0.0003098 -0.0000124 0.0000472 -0.0002170 -0.0000556 -0.0000439 -0.0000164 0.0002707 0.0018051 -0.0021147 -0.0057557 0.0000864 0.0007016 0.0000911 0.0007454
0.0000779 0.0001321 -0.0000347 0.0004296 0.0000596 0.0001148 0.0000208 0.0008680 0.0001317 0.0003683 0.0000789 0.0005310 -0.0000138 0.0002038 -0.0002219 0.0000756 -0.0000374 0.0000583 0.0002592 0.0019259 -0.0022875 -0.0052272 0.0000869 0.0008218 0.0000855 0.0008477
0.0000527 0.0002071 -0.0000448 0.0004980 0.0000293 0.0002235 0.0000080 0.0008380 0.0001198 0.0003637 0.0000425 0.0002959 -0.0000066 0.0000268 -0.0001895 -0.0000267 -0.0000104 -0.0000496 0.0002525 0.0017336 -0.0016696 -0.0054750 0.0001009 0.0005751 0.0000930 0.0006641
0.0000631 0.0000270 -0.0000360 0.0001719 0.0000454 0.0000485 0.0000028 0.0004388 0.0001063 0.0001480 0.0000102 -0.0001675 0.0000037 -0.0003198 -0.0001841 -0.0002473 -0.0000289 -0.0002415 0.0002482 0.0014687 -0.0026173 -0.0048226 0.0001100 0.0002787 0.0000985 0.0004630
0.0000764 -0.0001844 -0.0000220 -0.0001313 0.0000485 -0.0001622 0.0000080 0.0002354 0.0001128 0.0000405 0.0000387 -0.0001713 0.0000042 -0.0003229 -0.0001872 -0.0002637 -0.0000278 -0.0002934 0.0002351 0.0014895 -0.0022937 -0.0047688 0.0000991 0.0003385 0.0000931 0.0005155
0.0000489 -0.0001615 -0.0000258 -0.0000580 0.0000093 -0.0001200 -0.0000004 0.0003397 0.0001035 0.0001126 0.0000541 -0.0000123 0.0000104 -0.0001934 -0.0001832 -0.0001780 -0.0000317 -0.0002408 0.0002186 0.0015193 -0.0012733 -0.0052451 0.0000896 0.0004629 0.0000984 0.0006156
0.0000626 -0.0001060 -0.0000262 0.0000801 0.0000342 -0.0000745 0.0000077 0.0004696 0.0001150 0.0001834 0.0000592 0.0001233 0.0000176 -0.0000871 -0.0001981 -0.0000746 -0.0000502 -0.0001587 0.0002031 0.0015531 -0.0019428 -0.0047096 0.0000852 0.0005847 0.0001020 0.0007349
0.0000728 -0.0000418 -0.0000308 0.0002270 0.0000404 -0.0000042 0.0000114 0.0006434 0.0001225 0.0002797 0.0000716 0.0002996 0.0000205 0.0000500 -0.0001917 0.0000257 -0.0000238 -0.0000973 0.0002011 0.0016940 -0.0018584 -0.0047657 0.0000802 0.0007397 0.0001033 0.0008956
0.0000534 0.0000682 -0.0000397 0.0004183 0.0000180 0.0001292 0.0000004 0.0008762 0.0001097 0.0004258 0.0000801 0.0005187 0.0000178 0.0001962 -0.0001920 0.0001444 -0.0000311 -0.0000198 0.0002104 0.0017920 -0.0017104 -0.0048390 0.0000932 0.0007858 0.0001096 0.0009300
0.0000570 0.0000950 -0.0000432 0.0004259 0.0000415 0.0001450 0.0000044 0.0007621 0.0001162 0.0003628 0.0000557 0.0002349 0.0000161 -0.0000034 -0.0001991 0.0000448 -0.0000537 -0.0001079 0.0002040 0.0015327 -0.0023159 -0.0044674 0.0001145 0.0004997 0.0001084 0.0007043
0.0000509 -0.0000820 -0.0000350 0.0000776 0.0000231 -0.0000315 0.0000032 0.0003205 0.0001068 0.0001216 0.0000305 -0.0002491 0.0000257 -0.0003584 -0.0001740 -0.0001963 -0.0000295 -0.0003203 0.0002057 0.0012891 -0.0015645 -0.0050406 0.0001141 0.0002367 0.0001067 0.0005182
0.0000476 -0.0002553 -0.0000217 -0.0001755 0.0000066 -0.0001897 -0.0000046 0.0001639 0.0000959 0.0000320 0.0000446 -0.0002061 0.0000294 -0.0003536 -0.0001715 -0.0002077 -0.0000338 -0.0003480 0.0002234 0.0013664 -0.0016527 -0.0049675 0.0001076 0.0002885 0.0001125 0.0005660
0.0000728 -0.0002560 -0.0000193 -0.0000948 0.0000356 -0.0001946 -0.0000025 0.0002725 0.0001093 0.0000750 0.0000645 -0.0000437 0.0000276 -0.0002251 -0.0001807 -0.0001290 -0.0000448 -0.0002866 0.0002252 0.0014260 -0.0023421 -0.0044130 0.0001022 0.0003959 0.0001156 0.0006727
0.0000598 -0.0001789 -0.0000269 0.0000499 0.0000155 -0.0001261 -0.0000078 0.0004155 0.0001052 0.0001598 0.0000749 0.0000833 0.0000291 -0.0001132 -0.0001762 -0.0000552 -0.0000353 -0.0002328 0.0002251 0.0015026 -0.0015428 -0.0048730 0.0000939 0.0005172 0.0001191 0.0007835
0.0000475 -0.0000930 -0.0000311 0.0002044 0.0000099 -0.0000456 -0.0000060 0.0005970 0.0001071 0.0002731 0.0000821 0.0002649 0.0000276 0.0000372 -0.0001945 0.0000671 -0.0000603 -0.0001424 0.0002541 0.0017116 -0.0015946 -0.0049484 0.0000892 0.0006759 0.0001224 0.0009226
0.0000623 0.0000075 -0.0000340 0.0003997 0.0000288 0.0000603 0.0000077 0.0008242 0.0001256 0.0004117 0.0000930 0.0004622 0.0000226 0.0001624 -0.0002046 0.0001800 -0.0000623 -0.0000611 0.0003293 0.0019030 -0.0017990 -0.0051894 0.0001100 0.0006404 0.0001172 0.0008905
0.0000569 0.0000167 -0.0000351 0.0003399 0.0000181 0.0000569 -0.0000020 0.0006678 0.0001068 0.0003201 0.0000633 0.0001302 0.0000308 -0.0001037 -0.0001780 0.0000215 -0.0000118 -0.0001348 0.0004713 0.0019050 -0.0017233 -0.0067560 0.0001322 0.0002826 0.0001184 0.0006255
0.0000718 -0.0001775 -0.0000058 -0.0000465 0.0000342 -0.0001694 -0.0000083 0.0001969 0.0000864 0.0000150 0.0000420 -0.0003619 0.0000404 -0.0004636 -0.0001662 -0.0002139 0.0000106 -0.0002489 0.0004766 0.0013559 -0.0022640 -0.0083309 0.0001275 0.0000610 0.0001368 0.0005089
0.0000799 -0.0002991 0.0000243 -0.0002177 0.0000327 -0.0003150 -0.0000044 0.0000600 0.0000844 -0.0001200 0.0000752 -0.0002892 0.0000404 -0.0003859 -0.0001665 -0.0002092 0.0000092 -0.0002347 0.0002459 0.0003692 -0.0011240 -0.0055689 0.0001230 0.0001566 0.0001473 0.0005797
0.0000648 -0.0002270 0.0000285 -0.0000922 0.0000105 -0.0002731 -0.0000081 0.0001577 0.0000726 -0.0001055 0.0000930 -0.0000946 0.0000382 -0.0002041 -0.0001624 -0.0001409 -0.0000168 -0.0001957 0.0001596 0.0003734 0.0001068 -0.0022046 0.0001209 0.0002776 0.0001254 0.0005742
0.0000775 -0.0001343 0.0000268 0.0000640 0.0000321 -0.0002005 -0.0000086 0.0002728 0.0000790 -0.0000671 0.0001009 0.0000602 0.0000289 -0.0000599 -0.0001666 -0.0000648 -0.0000465 -0.0001404 0.0002161 0.0008449 0.0002130 -0.0017612 0.0001123 0.0003724 0.0000968 0.0005655
0.0000792 -0.0000239 0.0000194 0.0002467 0.0000317 -0.0000808 -0.0000178 0.0004522 0.0000816 0.0000236 0.0001178 0.0002573 0.0000254 0.0001120 -0.0001639 0.0000388 -0.0000336 -0.0000408 0.0002063 0.0008099 0.0001897 -0.0017060 0.0001003 0.0004957 0.0000874 0.0006493
0.0000707 0.0001142 0.0000096 0.0004627 0.0000221 0.0000743 -0.0000239 0.0006850 0.0000743 0.0001577 0.0001228 0.0004457 0.0000273 0.0002078 -0.0001645 0.0001267 -0.0000413 0.0000509 0.0002312 0.0006688 0.0002744 -0.0014222 0.0001126 0.0004003 0.0000784 0.0005602
0.0000752 0.0000871 0.0000093 0.0003483 0.0000490 0.0000291 -0.0000213 0.0004652 0.0000765 0.0000322 0.0000900 0.0000877 0.0000272 -0.0000314 -0.0001636 -0.0000246 -0.0000506 -0.0000521 0.0002574 0.0002552 0.0004348 -0.0010924 0.0001275 0.0000576 0.0000648 0.0002532
0.0000672 -0.0001110 0.0000199 -0.0000533 0.0000371 -0.0001869 -0.0000249 -0.0000227 0.0000707 -0.0002450 0.0000603 -0.0003812 0.0000263 -0.0003031 -0.0001565 -0.0002474 -0.0000318 -0.0002346 0.0002484 -0.0001022 0.0005202 -0.0009504 0.0001164 -0.0001093 0.0000597 0.0001054
0.0000648 -0.0001997 0.0000294 -0.0001691 0.0000184 -0.0002777 -0.0000316 -0.0000806 0.0000622 -0.0002993 0.0000747 -0.0002739 0.0000248 -0.0002386 -0.0001523 -0.0002370 -0.0000373 -0.0002328 0.0002351 -0.0002238 0.0004633 -0.0011571 0.0001053 -0.0000557 0.0000564 0.0001499
0.0000763 -0.0001527 0.0000281 -0.0000444 0.0000280 -0.0002405 -0.0000261 0.0000474 0.0000673 -0.0002537 0.0000981 -0.0000886 0.0000212 -0.0001076 -0.0001485 -0.0001664 -0.0000455 -0.0001771 0.0002227 -0.0002871 0.0005959 -0.0007487 0.0000990 0.0000253 0.0000572 0.0002158
0.0000668 -0.0000744 0.0000195 0.0000993 0.0000155 -0.0001739 -0.0000285 0.0001786 0.0000663 -0.0001819 0.0001082 0.0000626 0.0000150 0.0000051 -0.0001616 -0.0000946 -0.0000526 -0.0001134 0.0002066 -0.0003219 0.0007564 -0.0001677 0.0000909 0.0001308 0.0000594 0.0002959
0.0000651 0.0000238 0.0000123 0.0002769 0.0000261 -0.0000816 -0.0000279 0.0003782 0.0000679 -0.0000581 0.0001142 0.0002675 0.0000122 0.0001456 -0.0001753 0.0000166 -0.0000721 -0.0000138 0.0001832 -0.0003496 0.0006516 -0.0004157 0.0000818 0.0002796 0.0000531 0.0004204
0.0000655 0.0001490 0.0000052 0.0004807 0.0000415 0.0000481 -0.0000184 0.0005533 0.0000816 0.0000373 0.0001126 0.0002996 0.0000112 0.0001482 -0.0001582 0.0000406 -0.0000622 -0.0000003 0.0001716 -0.0005992 0.0005756 -0.0008538 0.0000947 0.0001432 0.0000483 0.0003174
0.0000599 0.0000824 0.0000060 0.0002972 0.0000349 -0.0000126 -0.0000332 0.0003000 0.0000663 -0.0001024 0.0000835 -0.0000525 0.0000104 -0.0000752 -0.0001441 -0.0001157 -0.0000533 -0.0001334 0.0001522 -0.0010069 0.0005396 -0.0011388 0.0001072 -0.0001568 0.0000480 0.0000657
0.0000761 -0.0001221 0.0000203 -0.0000697 0.0000514 -0.0002318 -0.0000353 -0.0000684 0.0000639 -0.0003031 0.0000705 -0.0002518 0.0000098 -0.0001712 -0.0001499 -0.0002147 -0.0000721 -0.0002081 0.0001339 -0.0011642 0.0005389 -0.0011926 0.0000942 -0.0001689 0.0000463 0.0000576
0.0000625 -0.0001214 0.0000260 -0.0000424 0.0000416 -0.0002497 -0.0000267 -0.0000136 0.0000777 -0.0002856 0.0000878 -0.0000823 0.0000071 -0.0000623 -0.0001521 -0.0001500 -0.0000674 -0.0001615 0.0001368 -0.0011643 0.0005632 -0.0011625 0.0000859 -0.0000587 0.0000464 0.0001421
0.0000486 -0.0000361 0.0000197 0.0001175 0.0000255 -0.0001660 -0.0000315 0.0001489 0.0000710 -0.0001969 0.0000993 0.0000783 0.0000034 0.0000499 -0.0001577 -0.0000626 -0.0000707 -0.0000950 0.0001296 -0.0011500 0.0005468 -0.0010850 0.0000792 0.0000420 0.0000471 0.0002183
0.0000638 0.0000371 0.0000163 0.0002591 0.0000498 -0.0001025 -0.0000252 0.0003064 0.0000856 -0.0001135 0.0001074 0.0002379 0.0000020 0.0001703 -0.0001547 0.0000267 -0.0000826 -0.0000172 0.0001187 -0.0011028 0.0005695 -0.0009887 0.0000708 0.0001725 0.0000449 0.0003412
0.0000555 0.0001579 0.0000112 0.0004447 0.0000492 0.0000260 -0.0000204 0.0005280 0.0000935 0.0000256 0.0001183 0.0004440 -0.0000018 0.0003130 -0.0001528 0.0001397 -0.0000681 0.0000646 0.0001061 -0.0010161 0.0005778 -0.0008636 0.0000678 0.0002922 0.0000465 0.0004282
0.0000480 0.0002396 0.0000028 0.0005479 0.0000451 0.0001242 -0.0000276 0.0005338 0.0000814 0.0000484 0.0000931 0.0002509 -0.0000026 0.0002014 -0.0001527 0.0000843 -0.0000824 0.0000306 0.0000955 -0.0012891 0.0005669 -0.0009753 0.0000780 0.0000874 0.0000457 0.0002484
0.0000567 0.0000938 0.0000120 0.0002657 0.0000615 -0.0000319 -0.0000307 0.0001773 0.0000880 -0.0001662 0.0000575 -0.0001574 0.0000014 -0.0000595 -0.0001338 -0.0001202 -0.0000823 -0.0001235 0.0000941 -0.0017006 0.0005973 -0.0011870 0.0000815 -0.0001816 0.0000403 0.0000426
0.0000412 -0.0000628 0.0000253 -0.0000181 0.0000377 -0.0001998 -0.0000296 -0.0000155 0.0000879 -0.0002724 0.0000630 -0.0001403 -0.0000007 -0.0000522 -0.0001281 -0.0001523 -0.0000627 -0.0001575 0.0000861 -0.0017437 0.0006100 -0.0011491 0.0000715 -0.0001326 0.0000431 0.0000874
0.0000463 -0.0000344 0.0000261 0.0000680 0.0000378 -0.0001789 -0.0000301 0.0000963 0.0000840 -0.0002124 0.0000814 0.0000347 -0.0000028 0.0000565 -0.0001324 -0.0000718 -0.0000785 -0.0000826 0.0000792 -0.0017056 0.0005916 -0.0010607 0.0000635 -0.0000290 0.0000444 0.0001770
0.0000666 0.0000195 0.0000227 0.0002050 0.0000652 -0.0001233 -0.0000313 0.0002314 0.0001009 -0.0001497 0.0000966 0.0001763 -0.0000045 0.0001512 -0.0001247 -0.0000032 -0.0000717 -0.0000374 0.0000757 -0.0016817 0.0006149 -0.0009794 0.0000585 0.0000655 0.0000437 0.0002643
0.0000408 0.0001075 0.0000151 0.0003434 0.0000398 -0.0000139 -0.0000334 0.0003894 0.0000976 -0.0000486 0.0001085 0.0003463 -0.0000090 0.0002787 -0.0001313 0.0000981 -0.0000695 0.0000228 0.0000566 -0.0016053 0.0006264 -0.0008392 0.0000532 0.0001862 0.0000480 0.0003796
0.0000399 0.0002054 0.0000112 0.0005200 0.0000428 0.0001128 -0.0000318 0.0005783 0.0000888 0.0000732 0.0001152 0.0005048 -0.0000141 0.0003536 -0.0001343 0.0001871 -0.0001013 0.0000937 0.0000508 -0.0016860 0.0006226 -0.0008118 0.0000579 0.0001022 0.0000388 0.0003093
0.0000496 0.0001490 0.0000140 0.0003784 0.0000689 0.0000557 -0.0000355 0.0003308 0.0000906 -0.0000638 0.0000837 0.0001488 -0.0000129 0.0001418 -0.0001054 0.0000344 -0.0000812 -0.0000365 0.0000448 -0.0020601 0.0006592 -0.0009908 0.0000689 -0.0002015 0.0000286 0.0000486
0.0000338 -0.0000538 0.0000248 -0.0000159 0.0000568 -0.0001661 -0.0000517 -0.0001531 0.0000733 -0.0003387 0.0000509 -0.0003130 -0.0000104 -0.0000839 -0.0000935 -0.0001619 -0.0000590 -0.0002093 0.0000229 -0.0023342 0.0006417 -0.0010652 0.0000604 -0.0003215 0.0000339 -0.0000515
0.0000502 -0.0001604 0.0000341 -0.0001139 0.0000578 -0.0002755 -0.0000521 -0.0002105 0.0000744 -0.0003824 0.0000650 -0.0002263 -0.0000126 -0.0000201 -0.0001085 -0.0001260 -0.0000926 -0.0001815 0.0000221 -0.0023387 0.0006257 -0.0010127 0.0000477 -0.0002495 0.0000315 0.0000024
0.0000421 -0.0001099 0.0000343 -0.0000021 0.0000523 -0.0002291 -0.0000479 -0.0000831 0.0000856 -0.0003199 0.0000816 -0.0000504 -0.0000145 0.0000955 -0.0000963 -0.0000518 -0.0000838 -0.0001284 0.0000270 -0.0022920 0.0006775 -0.0009890 0.0000409 -0.0001596 0.0000270 0.0000738
0.0000127 -0.0000210 0.0000302 0.0001265 0.0000272 -0.0001255 -0.0000571 0.0000595 0.0000827 -0.0002406 0.0000865 0.0000982 -0.0000212 0.0002067 -0.0001028 0.0000305 -0.0000864 -0.0000620 0.0000202 -0.0022280 0.0006760 -0.0009069 0.0000294 -0.0000325 0.0000291 0.0001793
0.0000367 0.0000521 0.0000250 0.0002978 0.0000440 -0.0000145 -0.0000507 0.0002633 0.0000945 -0.0001218 0.0000957 0.0002978 -0.0000208 0.0003353 -0.0001193 0.0001500 -0.0001119 0.0000404 0.0000095 -0.0021193 0.0006570 -0.0007636 0.0000161 0.0001063 0.0000226 0.0002923
0.0000374 0.0001361 0.0000179 0.0004360 0.0000551 0.0000924 -0.0000433 0.0003078 0.0000921 -0.0000864 0.0000755 0.0001457 -0.0000179 0.0002383 -0.0000881 0.0001016 -0.0000834 -0.0000111 0.0000079 -0.0023362 0.0006879 -0.0008793 0.0000314 -0.0000891 0.0000214 0.0001245
0.0000162 0.0000130 0.0000218 0.0001639 0.0000389 -0.0000314 -0.0000574 -0.0000437 0.0000738 -0.0002794 0.0000409 -0.0002977 -0.0000216 -0.0000257 -0.0000858 -0.0000900 -0.0000923 -0.0001681 0.0000028 -0.0027139 0.0006607 -0.0010898 0.0000432 -0.0003945 0.0000234 -0.0001502
0.0000355 -0.0002105 0.0000369 -0.0002117 0.0000478 -0.0002715 -0.0000604 -0.0003476 0.0000816 -0.0004493 0.0000460 -0.0003965 -0.0000177 -0.0000738 -0.0000875 -0.0001528 -0.0001019 -0.0002204 0.0000003 -0.0027675 0.0006548 -0.0010976 0.0000266 -0.0003681 0.0000147 -0.0001410
0.0000187 -0.0001951 0.0000382 -0.0001677 0.0000230 -0.0002621 -0.0000543 -0.0002747 0.0000845 -0.0004058 0.0000635 -0.0002236 -0.0000169 0.0000242 -0.0000691 -0.0000882 -0.0000725 -0.0001863 0.0000126 -0.0027016 0.0006942 -0.0010698 0.0000199 -0.0002511 0.0000192 -0.0000487
0.0000149 -0.0001148 0.0000366 -0.0000125 0.0000086 -0.0001659 -0.0000541 -0.0001107 0.0000838 -0.0003190 0.0000761 -0.0000489 -0.0000218 0.0001243 -0.0000819 0.0000070 -0.0000922 -0.0001128 0.0000067 -0.0026158 0.0006524 -0.0009912 0.0000160 -0.0001444 0.0000228 0.0000471
0.0000429 -0.0000523 0.0000355 0.0001346 0.0000357 -0.0000858 -0.0000505 0.0000724 0.0001020 -0.0002181 0.0000905 0.0001350 -0.0000237 0.0002496 -0.0000823 0.0001036 -0.0000952 -0.0000421 0.0000053 -0.0025114 0.0006614 -0.0009022 0.0000061 0.0000019 0.0000171 0.0001893
0.0000066 0.0000795 0.0000273 0.0003330 0.0000154 0.0000578 -0.0000496 0.0003178 0.0000990 -0.0000524 0.0001012 0.0003581 -0.0000281 0.0003819 -0.0000757 0.0002153 -0.0000792 0.0000306 0.0000233 -0.0024442 0.0007056 -0.0008631 0.0000136 0.0000458 0.0000215 0.0002012
0.0000069 0.0000973 0.0000238 0.0003113 0.0000216 0.0000917 -0.0000508 0.0001887 0.0000883 -0.0000983 0.0000714 0.0000624 -0.0000293 0.0002041 -0.0000857 0.0001238 -0.0001098 -0.0000318 0.0000106 -0.0026936 0.0006611 -0.0009888 0.0000196 -0.0001921 0.0000141 -0.0000180
0.0000340 -0.0001035 0.0000368 -0.0000389 0.0000383 -0.0000980 -0.0000457 -0.0002667 0.0000935 -0.0003462 0.0000419 -0.0004249 -0.0000209 -0.0000786 -0.0000581 -0.0000938 -0.0000867 -0.0002098 0.0000042 -0.0029984 0.0006676 -0.0011840 0.0000119 -0.0003815 0.0000053 -0.0001714
0.0000099 -0.0002261 0.0000493 -0.0002291 -0.0000024 -0.0002158 -0.0000441 -0.0003757 0.0000831 -0.0004062 0.0000609 -0.0003602 -0.0000206 -0.0000382 -0.0000395 -0.0000890 -0.0000580 -0.0002268 0.0000144 -0.0029590 0.0006902 -0.0011948 0.0000079 -0.0003127 0.0000162 -0.0001271
0.0000223 -0.0001931 0.0000478 -0.0001209 -0.0000049 -0.0001728 -0.0000429 -0.0002297 0.0000861 -0.0003299 0.0000807 -0.0001624 -0.0000264 0.0000806 -0.0000634 0.0000141 -0.0000972 -0.0001479 0.0000066 -0.0028471 0.0006375 -0.0011048 -0.0000019 -0.0001979 0.0000158 -0.0000345
0.0000234 -0.0001101 0.0000440 0.0000298 -0.0000028 -0.0000881 -0.0000377 -0.0000688 0.0001090 -0.0002451 0.0000966 0.0000001 -0.0000249 0.0001805 -0.0000498 0.0000908 -0.0000808 -0.0000973 0.0000078 -0.0027508 0.0006707 -0.0010442 -0.0000133 -0.0000638 0.0000122 0.0000828
-0.0000099 0.0000096 0.0000392 0.0002004 -0.0000275 0.0000434 -0.0000374 0.0001488 0.0001121 -0.0001166 0.0001050 0.0002132 -0.0000287 0.0003135 -0.0000574 0.0002119 -0.0000801 -0.0000075 0.0000153 -0.0026246 0.0007047 -0.0009575 -0.0000201 0.0000981 0.0000202 0.0002283
