-0.0000000 -0.0000000 -0.0000000 -0.0000000 -0.0000000 -0.0000000 -0.0000000 -0.0000000 -0.0000000 -0.0000000 -0.0000000 -0.0000000 -0.0000000 -0.0000000 -0.0000000 -0.0000000 -0.0000000 -0.0000000 -0.0000000 -0.0000000 -0.0000000 -0.0000000 -0.0000000 -0.0000000 -0.0000000 -0.0000000 -0.0000000 -0.0000000 -0.0000000 -0.0000000 -0.0000000 -0.0000000 -0.0000000 -0.0000000 -0.0000000 -0.0000000 -0.0000000 -0.0000000 -0.0000000 -0.0000000 -0.0000000 -0.0000000 -0.0000000 -0.0000000 -0.0000000 -0.0000000 -0.0000000 -0.0000000 -0.0000000 -0.0000000 -0.0000000 -0.0000000 -0.0000000 -0.0000000 -0.0000000 -0.0000000 -0.0000000 -0.0000000 -0.0000000 -0.0000000 -0.0000000 -0.0000000 -0.0000000 -0.0000000 -0.0000000 -0.0000000 -0.0000000 -0.0000000 -0.0000000 -0.0000000 -0.0000000 -0.0000000 -0.0000000 -0.0000000 -0.0000000 -0.0000000 -0.0000000 -0.0000000 -0.0000000 -0.0000000 -0.0000000 -0.0000000 -0.0000000 -0.0000000 -0.0000000 -0.0000000 -0.0000000 -0.0000000 -0.0000000 -0.0000000 -0.0000000 -0.0000000 -0.0000000 -0.0000000 -0.0000000 -0.0000000 -0.0000000 -0.0000000 -0.0000000 -0.0000000 -0.0000000 -0.0000000 -0.0000000 -0.0000000 -0.0000000 -0.0000000 -0.0000000 -0.0000000 -0.0000000 -0.0000000 -0.0000000 -0.0000000 -0.0000000 -0.0000000 -0.0000000 -0.0000000 -0.0000000 -0.0000000 -0.0000000 -0.0000000 -0.0000000 -0.0000000 -0.0000000 -0.0000000 -0.0000000 -0.0000000 -0.0000000 -0.0000000 -0.0000000 -0.0000000 -0.0000000 -0.0000000 -0.0000000 -0.0000000 -0.0000000 -0.0000000 -0.0000000 -0.0000000 -0.0000000 -0.0000000 -0.0000000 -0.0000000 -0.0000000 -0.0000000 -0.0000000 -0.0000000 -0.0000000 -0.0000000 -0.0000000 -0.0000000 -0.0000000 -0.0000000 -0.0000000 -0.0000000 -0.0000000 -0.0000000 -0.0000000 -0.0000000 -0.0000000 -0.0000000 -0.0000000 -0.0000000 -0.0000000 -0.0000000 -0.0000000 -0.0000000 -0.0000000 -0.0000000 -0.0000000 -0.0000000 -0.0000000 -0.0000000 -0.0000000 -0.0000000 -0.0000000 -0.0000000
-0.0000000 -0.0000000 -0.0000000 -0.0000000 -0.0000000 -0.0000000 -0.0000000 -0.0000000 -0.0000000 -0.0000000 -0.0000000 -0.0000000 -0.0000000 -0.0000000 -0.0000000 -0.0000000 -0.0000000 -0.0000000 -0.0000000 -0.0000000 -0.0000000 -0.0000000 -0.0000000 -0.0000000 -0.0000000 -0.0000000 -0.0000000 -0.0000000 -0.0000000 -0.0000000 -0.0000000 -0.0000000 -0.0000000 -0.0000000 -0.0000000 -0.0000000 -0.0000000 -0.0000000 -0.0000000 -0.0000000 -0.0000000 -0.0000000 -0.0000000 -0.0000000 -0.0000000 -0.0000000 -0.0000000 -0.0000000 -0.0000000 -0.0000000 -0.0000000 -0.0000000 -0.0000000 -0.0000000 -0.0000000 -0.0000000 -0.0000000 -0.0000000 -0.0000000 -0.0000000 -0.0000000 -0.0000000 -0.0000000 -0.0000000 -0.0000000 -0.0000000 -0.0000000 -0.0000000 -0.0000000 -0.0000000 -0.0000000 -0.0000000 -0.0000000 -0.0000000 -0.0000000 -0.0000000 -0.0000000 -0.0000000 -0.0000000 -0.0000000 -0.0000000 -0.0000000 -0.0000000 -0.0000000 -0.0000000 -0.0000000 -0.0000000 -0.0000000 -0.0000000 -0.0000000 -0.0000000 -0.0000000 -0.0000000 -0.0000000 -0.0000000 -0.0000000 -0.0000000 -0.0000000 -0.0000000 -0.0000000 -0.0000000 -0.0000000 -0.0000000 -0.0000000 -0.0000000 -0.0000000 -0.0000000 -0.0000000 -0.0000000 -0.0000000 -0.0000000 -0.0000000 -0.0000000 -0.0000000 -0.0000000 -0.0000000 -0.0000000 -0.0000000 -0.0000000 -0.0000000 -0.0000000 -0.0000000 -0.0000000 -0.0000000 -0.0000000 -0.0000000 -0.0000000 -0.0000000 -0.0000000 -0.0000000 -0.0000000 -0.0000000 -0.0000000 -0.0000000 -0.0000000 -0.0000000 -0.0000000 -0.0000000 -0.0000000 -0.0000000 -0.0000000 -0.0000000 -0.0000000 -0.0000000 -0.0000000 -0.0000000 -0.0000000 -0.0000000 -0.0000000 -0.0000000 -0.0000000 -0.0000000 -0.0000000 -0.0000000 -0.0000000 -0.0000000 -0.0000000 -0.0000000 -0.0000000 -0.0000000 -0.0000000 -0.0000000 -0.0000000 -0.0000000 -0.0000000 -0.0000000 -0.0000000 -0.0000000 -0.0000000 -0.0000000 -0.0000000 -0.0000000 -0.0000000 -0.0000000 -0.0000000 -0.0000000
0.0000177 -0.0000282 -0.0000205 -0.0001209 0.0020479 -0.0005170 -0.0000069 -0.0000169 -0.0000090 0.0000149 0.0000276 -0.0000013 -0.0001150 0.0000147 0.0000934 -0.0000441 0.0000009 0.0000309 -0.0000060 0.0000178 -0.0000188 0.0000173 0.0000284 0.0000911 -0.0000021 0.0000044 0.0000244 -0.0000064 0.0000401 0.0001196 -0.0000600 0.0000738 0.0002672 0.0000277 -0.0000262 0.0000524 0.0000012 0.0000106 0.0000102 -0.0000036 0.0001078 -0.0000565 -0.0000034 0.0000074 0.0000107 0.0000070 -0.0004192 0.0006004 -0.0001424 -0.0002098 -0.0000570 0.0000193 0.0000053 -0.0000125 -0.0000079 -0.0000005 -0.0002921 -0.0007368 0.0000040 0.0000174 0.0000040 -0.0000146 -0.0000065 -0.0000257 0.0001975 -0.0000915 0.0000005 -0.0000235 0.0000229 -0.0000622 0.0000068 -0.0000516 0.0013447 -0.0006518 0.0000197 -0.0000561 0.0000090 -0.0000377 -0.0000248 -0.0000697 -0.0000075 -0.0000573 0.0000022 -0.0000345 0.0002253 -0.0002313 0.0000008 -0.0000680 -0.0000149 -0.0000067 0.0000139 -0.0000672 0.0001458 -0.0001405 -0.0000156 -0.0000121 -0.0000169 -0.0000417 0.0000386 -0.0000734 0.0000773 -0.0002544 -0.0002426 0.0000632 0.0000054 -0.0000752 -0.0000023 -0.0000423 -0.0000111 -0.0000677 -0.0000413 -0.0000171 -0.0000069 -0.0000568 -0.0000039 -0.0000695 0.0001012 -0.0002767 0.0000008 -0.0000444 -0.0001562 0.0001870 0.0000012 -0.0000418 0.0000081 -0.0000794 0.0000104 -0.0000876 0.0001751 -0.0002532 0.0000028 -0.0000572 -0.0000122 -0.0000246 0.0000624 -0.0007045 0.0008006 -0.0008239 0.0000093 -0.0001083 -0.0000007 -0.0000747 0.0000187 -0.0001078 0.0000736 -0.0001703 -0.0000129 -0.0000627 -0.0000030 -0.0000633 -0.0000043 -0.0001037 0.0001513 -0.0001482 -0.0000019 -0.0001074 -0.0000012 -0.0000891 0.0000009 -0.0001143 -0.0008815 -0.0003428 0.0000379 -0.0001523 0.0000088 -0.0000929 -0.0003734 0.0000153 0.0000078 -0.0001166 -0.0000003 -0.0001125 0.0001921 -0.0002069 0.0000019 -0.0000980
-0.0000552 -0.0000585 0.0001336 -0.0001046 0.0036474 -0.0041165 -0.0000204 -0.0001244 -0.0000123 -0.0000852 -0.0000164 -0.0000964 -0.0001164 -0.0000516 0.0002921 -0.0003240 -0.0000137 -0.0000609 0.0000046 -0.0000650 0.0000138 -0.0001056 -0.0001055 -0.0000150 0.0000099 -0.0001257 0.0000337 -0.0001487 0.0000928 -0.0000686 -0.0001102 0.0000137 0.0004171 -0.0008860 -0.0000174 -0.0000794 -0.0000009 -0.0000691 -0.0000231 -0.0000799 -0.0000548 0.0000533 -0.0000025 -0.0000837 0.0000318 -0.0001083 0.0005097 -0.0002050 0.0012025 -0.0012576 -0.0000122 -0.0001057 -0.0000139 -0.0000710 0.0000095 -0.0001072 -0.0004028 -0.0002575 -0.0000029 -0.0000656 -0.0000009 -0.0000752 -0.0000095 -0.0000890 -0.0012034 -0.0000471 0.0000439 -0.0001151 0.0000272 -0.0001176 -0.0000201 -0.0000403 0.0006649 -0.0006142 0.0000084 -0.0000835 0.0000066 -0.0000401 -0.0000336 -0.0000451 -0.0000108 -0.0000643 0.0000045 -0.0000085 -0.0000229 0.0001661 0.0000001 -0.0000217 -0.0000154 0.0000124 0.0000047 -0.0000615 0.0000136 -0.0001149 -0.0000198 0.0000217 -0.0000172 -0.0000305 0.0000456 -0.0001163 -0.0005869 0.0002409 -0.0001342 0.0000361 0.0000035 -0.0000378 -0.0000018 -0.0000325 -0.0000052 -0.0000548 -0.0000894 -0.0000179 -0.0000072 -0.0000506 -0.0000112 -0.0000603 0.0002640 -0.0003791 0.0000120 0.0000193 -0.0005633 0.0006085 0.0000178 -0.0000391 0.0000142 -0.0000993 0.0000046 -0.0000802 0.0001279 -0.0002305 0.0000089 -0.0000348 -0.0000024 0.0000066 0.0008038 -0.0026183 0.0018031 -0.0020582 0.0000137 -0.0001280 -0.0000017 -0.0000747 0.0000043 -0.0001008 0.0000551 -0.0001614 -0.0000022 -0.0000603 0.0000065 -0.0000615 0.0000529 -0.0001303 0.0008539 -0.0010020 0.0000305 -0.0001143 0.0000061 -0.0001091 -0.0000192 -0.0001074 -0.0001861 -0.0001405 -0.0000244 -0.0001126 -0.0000100 -0.0000845 -0.0001314 -0.0002434 -0.0000114 -0.0001213 -0.0000092 -0.0001238 0.0001320 -0.0001517 0.0000032 -0.0001183
-0.0000358 -0.0001390 0.0003808 -0.0003360 -0.0005355 -0.0016413 -0.0000191 -0.0001607 -0.0000015 -0.0001422 0.0000191 -0.0001450 0.0004464 -0.0006705 -0.0001078 -0.0001233 -0.0000093 -0.0001266 0.0000118 -0.0000920 -0.0000062 -0.0001169 -0.0001968 0.0000677 -0.0000112 -0.0001676 -0.0000001 -0.0001510 0.0002026 -0.0002547 -0.0000645 -0.0000725 -0.0004781 -0.0000236 -0.0000164 -0.0001314 -0.0000042 -0.0001017 -0.0000724 -0.0000868 -0.0003267 0.0004136 -0.0000058 -0.0001251 0.0000212 -0.0001554 0.0005542 -0.0005429 0.0001739 -0.0004402 -0.0000174 -0.0001658 -0.0000318 -0.0001355 0.0000026 -0.0001269 -0.0008553 -0.0000459 0.0000017 -0.0000878 -0.0000041 -0.0000889 0.0000792 -0.0002158 -0.0024177 0.0010652 0.0000261 -0.0001833 -0.0000104 -0.0001334 -0.0000650 -0.0000887 0.0006401 -0.0006236 0.0000011 -0.0001012 -0.0000067 -0.0000677 -0.0000356 -0.0001734 0.0000055 -0.0001273 -0.0000055 -0.0000441 0.0000561 -0.0000036 -0.0000119 -0.0000175 -0.0000258 -0.0000534 0.0000069 -0.0001354 0.0000979 -0.0001997 -0.0000557 -0.0000298 0.0000008 -0.0001102 0.0000135 -0.0001345 -0.0005839 -0.0002101 -0.0000895 -0.0000451 -0.0000036 -0.0000955 0.0000055 -0.0000743 0.0000006 -0.0001243 -0.0000078 -0.0002355 -0.0000251 -0.0001296 -0.0000176 -0.0001518 0.0004332 -0.0004426 0.0000153 -0.0000718 -0.0001937 0.0001231 -0.0000033 -0.0002128 0.0000101 -0.0001588 0.0000296 -0.0001784 0.0000514 -0.0003700 -0.0000150 -0.0001384 -0.0000041 -0.0002419 0.0003658 -0.0015120 0.0025566 -0.0022154 -0.0000145 -0.0001517 0.0000062 -0.0001216 -0.0000244 -0.0002067 -0.0000062 -0.0003895 -0.0000375 -0.0001706 0.0000040 -0.0001147 0.0000336 -0.0001814 0.0004422 -0.0011759 0.0000174 -0.0001937 -0.0000102 -0.0002019 -0.0000616 -0.0003106 -0.0001527 -0.0002105 -0.0000397 -0.0001886 -0.0000131 -0.0001430 -0.0000041 -0.0001302 -0.0000300 -0.0002071 -0.0000351 -0.0002352 -0.0000663 -0.0003855 -0.0000092 -0.0001845
-0.0000198 -0.0002456 0.0004271 -0.0007508 -0.0059100 0.0025608 -0.0000107 -0.0002534 0.0000003 -0.0002332 0.0000103 -0.0002126 0.0004564 -0.0008263 0.0001023 -0.0002930 0.0000736 -0.0003055 0.0000254 -0.0001506 0.0000216 -0.0001955 -0.0000511 -0.0002260 -0.0000008 -0.0002368 -0.0000429 -0.0001958 -0.0000126 -0.0002309 0.0000051 -0.0003172 0.0003554 -0.0004082 -0.0000732 -0.0002403 -0.0000083 -0.0001984 -0.0000499 -0.0002073 -0.0000049 0.0000393 0.0000201 -0.0002512 -0.0000297 -0.0002388 0.0007263 -0.0008228 -0.0004511 -0.0000296 -0.0000233 -0.0002579 -0.0000144 -0.0002510 0.0000139 -0.0002053 -0.0013921 0.0003880 -0.0000144 -0.0001803 0.0000092 -0.0001555 0.0000830 -0.0003445 -0.0025914 0.0021095 -0.0000161 -0.0002666 -0.0000092 -0.0002259 -0.0000637 -0.0003849 0.0009708 -0.0011610 0.0000337 -0.0002515 -0.0000023 -0.0001672 0.0000850 -0.0004107 0.0000320 -0.0002094 -0.0000213 -0.0001704 0.0000746 -0.0002908 0.0000220 -0.0001196 -0.0000000 -0.0001918 0.0000238 -0.0003135 0.0001327 -0.0003609 -0.0000059 -0.0002219 0.0000070 -0.0002684 -0.0000298 -0.0002327 -0.0005013 0.0002791 -0.0002990 -0.0000118 0.0000024 -0.0002244 0.0000097 -0.0001599 -0.0000145 -0.0002313 -0.0000340 -0.0003801 -0.0000169 -0.0002430 -0.0000174 -0.0002639 0.0006733 -0.0008467 0.0000344 -0.0002710 0.0002984 -0.0006115 -0.0000066 -0.0004075 0.0000056 -0.0001916 0.0000222 -0.0001934 0.0003257 -0.0006235 -0.0000093 -0.0002640 -0.0000423 -0.0004241 -0.0003346 0.0009039 0.0035099 -0.0027460 0.0000024 -0.0001042 0.0000170 -0.0001074 -0.0000452 -0.0002042 -0.0001476 -0.0002579 -0.0000293 -0.0002223 0.0000134 -0.0000701 -0.0000555 -0.0001070 -0.0002984 -0.0002772 -0.0000057 -0.0001043 -0.0000353 -0.0001423 -0.0000831 -0.0003159 0.0002662 -0.0004988 0.0000174 -0.0001146 0.0000019 -0.0001173 0.0000042 0.0000071 -0.0000254 -0.0001060 -0.0000429 -0.0001976 0.0002127 -0.0005018 0.0000002 -0.0001191
0.0001018 -0.0002402 0.0002397 -0.0004367 0.0010490 -0.0025662 0.0000118 -0.0001677 -0.0000058 -0.0001539 0.0000098 -0.0001861 0.0005966 -0.0002865 -0.0004612 0.0002077 0.0001069 -0.0002920 0.0000356 -0.0001431 0.0000434 -0.0001573 0.0001483 -0.0003841 0.0000154 -0.0002081 -0.0000073 -0.0001857 0.0003951 -0.0004515 -0.0000101 -0.0003150 0.0014543 -0.0010479 -0.0000648 -0.0002510 -0.0000124 -0.0002002 -0.0000289 -0.0002084 -0.0001442 0.0000544 0.0000260 -0.0002623 0.0000069 -0.0002958 0.0008966 -0.0006887 -0.0010723 0.0000896 0.0000078 -0.0002930 -0.0000051 -0.0002192 0.0000145 -0.0001900 0.0002878 -0.0006112 -0.0000407 -0.0002090 0.0000141 -0.0001993 0.0000327 -0.0003252 0.0015011 -0.0008890 0.0000090 -0.0002729 -0.0000014 -0.0002077 -0.0000489 -0.0005499 0.0013952 -0.0005504 0.0000872 -0.0002989 0.0000099 -0.0001807 0.0001701 -0.0003361 0.0000579 -0.0001309 -0.0000137 -0.0002419 -0.0000538 -0.0000323 0.0000373 -0.0001724 -0.0000095 -0.0001356 0.0000329 -0.0004188 0.0000302 -0.0004969 0.0000484 -0.0002482 0.0000074 -0.0003056 0.0000267 -0.0004050 0.0007140 0.0000628 -0.0000520 -0.0003340 0.0000101 -0.0002744 0.0000039 -0.0002138 -0.0000190 -0.0003510 -0.0000021 -0.0004014 0.0000121 -0.0002901 -0.0000127 -0.0003052 0.0002654 -0.0008904 -0.0000120 -0.0002569 0.0002497 -0.0004434 0.0000518 -0.0003205 -0.0000025 -0.0002633 0.0000226 -0.0002947 0.0005308 -0.0008892 0.0000052 -0.0002484 -0.0000362 -0.0001221 0.0048495 -0.0054497 0.0010221 -0.0000717 0.0000080 -0.0002299 0.0000115 -0.0002106 -0.0000289 -0.0002280 -0.0000464 -0.0002806 0.0000608 -0.0002604 0.0000253 -0.0001230 0.0000032 -0.0002311 0.0000865 -0.0008538 0.0000103 -0.0002097 -0.0000152 -0.0001657 -0.0000429 -0.0001821 0.0000501 -0.0002568 -0.0000172 -0.0000938 0.0000107 -0.0001891 0.0001279 -0.0002177 -0.0000005 -0.0000927 0.0000002 -0.0001289 0.0003391 -0.0004297 -0.0000086 -0.0001213
0.0001186 -0.0004477 -0.0000044 -0.0004630 0.0037333 -0.0057504 -0.0000040 -0.0002997 -0.0000084 -0.0002601 0.0000307 -0.0002960 0.0001491 -0.0005176 -0.0001733 -0.0003037 0.0000001 -0.0003311 0.0000215 -0.0002289 -0.0000031 -0.0001842 0.0001312 -0.0003912 0.0000064 -0.0003598 0.0000147 -0.0003471 0.0008337 -0.0008638 -0.0000564 -0.0002888 0.0007101 -0.0013692 0.0000031 -0.0003812 -0.0000090 -0.0002741 0.0000029 -0.0003327 -0.0004532 -0.0000755 0.0000041 -0.0003409 0.0000759 -0.0003925 0.0011023 -0.0013054 -0.0015833 0.0011964 0.0000101 -0.0004203 -0.0000117 -0.0002988 -0.0000091 -0.0002961 0.0006405 -0.0009888 -0.0000440 -0.0004114 -0.0000034 -0.0003346 0.0000578 -0.0004891 0.0010296 -0.0011297 0.0000341 -0.0004053 0.0000172 -0.0002464 -0.0000564 -0.0004779 -0.0002659 0.0010174 0.0001010 -0.0003839 0.0000021 -0.0002692 0.0000646 -0.0003801 0.0000574 -0.0001760 0.0000134 -0.0002750 0.0003566 -0.0005857 -0.0000076 -0.0003327 -0.0000222 -0.0001554 -0.0000124 -0.0005793 -0.0000513 -0.0006004 0.0000522 -0.0003253 -0.0000103 -0.0004571 -0.0000623 -0.0004649 0.0001308 -0.0006300 -0.0001949 -0.0004805 0.0000269 -0.0004072 -0.0000021 -0.0003312 -0.0000203 -0.0005585 0.0000638 -0.0005600 -0.0000172 -0.0003705 -0.0000220 -0.0004816 0.0000297 -0.0010069 -0.0000513 -0.0002985 0.0007108 -0.0003296 0.0000242 -0.0003194 0.0000089 -0.0004366 0.0000520 -0.0005472 0.0000162 -0.0006436 0.0000035 -0.0002614 0.0000768 -0.0000593 0.0026968 -0.0043162 -0.0005545 0.0005570 0.0000168 -0.0004403 -0.0000075 -0.0003782 -0.0000054 -0.0003707 -0.0000691 -0.0002671 0.0000624 -0.0003290 0.0000283 -0.0002462 0.0000759 -0.0004192 0.0003412 -0.0014597 0.0000241 -0.0003911 0.0000158 -0.0002906 0.0000153 -0.0001715 -0.0000861 -0.0000140 0.0000118 -0.0002806 0.0000291 -0.0003728 0.0001969 -0.0003124 0.0000062 -0.0001807 0.0000346 -0.0000980 0.0002133 -0.0004133 0.0000144 -0.0002877
0.0000004 -0.0005947 -0.0000026 -0.0005654 0.0047218 -0.0063072 -0.0000064 -0.0005011 -0.0000052 -0.0004169 -0.0000310 -0.0003776 -0.0001905 -0.0000018 0.0002815 -0.0008131 -0.0000553 -0.0003910 0.0000054 -0.0003197 0.0000221 -0.0002786 0.0001868 -0.0004506 0.0000089 -0.0004685 0.0000190 -0.0004762 0.0003638 -0.0012026 -0.0000826 -0.0002465 -0.0015133 -0.0003078 0.0000881 -0.0004208 -0.0000102 -0.0002818 0.0000428 -0.0003753 -0.0006115 0.0000029 -0.0000126 -0.0003492 0.0000551 -0.0003316 0.0006843 -0.0009906 -0.0005915 0.0004128 -0.0000098 -0.0003323 0.0000126 -0.0003303 0.0000274 -0.0003541 -0.0008458 0.0000449 -0.0000482 -0.0004271 -0.0000057 -0.0003341 0.0000275 -0.0003913 0.0005409 -0.0002987 0.0000322 -0.0003625 0.0000242 -0.0002732 -0.0000957 -0.0003852 -0.0005355 0.0002233 0.0000429 -0.0002700 -0.0000003 -0.0001762 0.0001271 -0.0004163 0.0000417 -0.0001639 0.0000243 -0.0002019 0.0004392 -0.0006405 -0.0000248 -0.0002252 -0.0000084 -0.0001547 -0.0000172 -0.0005253 0.0003336 -0.0008403 0.0000798 -0.0003123 -0.0000285 -0.0004484 -0.0000401 -0.0004465 0.0005608 -0.0013809 -0.0003571 -0.0003862 0.0000203 -0.0002828 -0.0000054 -0.0002727 -0.0000241 -0.0005009 -0.0000909 -0.0003912 -0.0000360 -0.0002780 -0.0000344 -0.0004296 0.0001945 -0.0005157 -0.0000268 -0.0001994 0.0006203 -0.0002539 0.0000118 -0.0002920 0.0000063 -0.0003397 0.0000238 -0.0004217 0.0002470 -0.0007905 0.0000227 -0.0001825 0.0000656 -0.0000382 -0.0071251 0.0052070 0.0007878 -0.0011042 0.0000345 -0.0003604 -0.0000071 -0.0003297 -0.0000122 -0.0003601 -0.0000113 -0.0002534 0.0000381 -0.0002339 0.0000280 -0.0001900 0.0000715 -0.0003701 0.0002536 -0.0006478 0.0000497 -0.0003937 0.0000016 -0.0002900 -0.0000084 -0.0001715 -0.0001295 0.0001077 0.0000291 -0.0002865 0.0000282 -0.0003693 -0.0000985 -0.0001354 -0.0000098 -0.0002274 0.0000113 -0.0001026 0.0001477 -0.0002597 0.0000129 -0.0002955
0.0000036 -0.0005364 0.0000581 -0.0004681 0.0033121 -0.0020486 -0.0000170 -0.0004965 -0.0000197 -0.0004125 -0.0000353 -0.0004040 -0.0000238 0.0000982 -0.0001589 -0.0004649 -0.0000051 -0.0004134 0.0000008 -0.0003171 0.0000288 -0.0003133 -0.0001599 -0.0001159 0.0000189 -0.0004616 -0.0000270 -0.0004396 0.0006283 -0.0011635 -0.0001243 -0.0002016 -0.0005557 -0.0001054 0.0000776 -0.0004242 -0.0000156 -0.0002874 0.0000326 -0.0004017 -0.0006889 0.0000806 -0.0000318 -0.0003409 0.0000242 -0.0003441 0.0008872 -0.0007042 0.0012004 -0.0017587 -0.0000140 -0.0003491 0.0000080 -0.0003415 0.0000258 -0.0003921 0.0005512 -0.0011619 0.0000667 -0.0005138 -0.0000007 -0.0003499 0.0000164 -0.0003831 -0.0008249 0.0012750 0.0000538 -0.0003815 0.0000071 -0.0003125 -0.0000668 -0.0005204 0.0004975 -0.0014424 0.0000379 -0.0002986 -0.0000030 -0.0001780 0.0002340 -0.0006897 0.0000379 -0.0001943 0.0000016 -0.0002719 -0.0001512 0.0000116 -0.0000129 -0.0002250 0.0000245 -0.0001956 -0.0001069 -0.0004395 0.0004145 -0.0010223 0.0000902 -0.0003449 -0.0000422 -0.0004447 0.0000140 -0.0005407 0.0007362 -0.0018781 -0.0000834 -0.0005161 0.0000166 -0.0002761 0.0000020 -0.0002620 -0.0000081 -0.0004867 -0.0001425 -0.0003553 -0.0000153 -0.0003121 -0.0000416 -0.0004509 0.0003143 -0.0004416 0.0000039 -0.0002061 0.0003037 -0.0003907 0.0000082 -0.0003634 -0.0000067 -0.0003261 0.0000758 -0.0004814 0.0004600 -0.0009839 0.0000259 -0.0001979 0.0000066 -0.0000731 -0.0039345 0.0028923 0.0007735 -0.0019289 0.0000258 -0.0003655 0.0000015 -0.0003426 -0.0000176 -0.0003903 -0.0000806 -0.0002106 0.0000882 -0.0003156 0.0000291 -0.0002249 0.0000547 -0.0003551 -0.0000069 -0.0001343 0.0000856 -0.0004272 -0.0000318 -0.0002691 -0.0000052 -0.0002277 -0.0012467 0.0005532 0.0000324 -0.0003525 0.0000210 -0.0003754 -0.0002101 -0.0002209 -0.0000241 -0.0002572 0.0000056 -0.0001678 -0.0000525 -0.0002019 0.0000157 -0.0003059
0.0000599 -0.0006483 -0.0003969 -0.0002885 -0.0008336 0.0007512 -0.0000041 -0.0005518 -0.0000416 -0.0004435 -0.0000069 -0.0004840 0.0001718 -0.0005297 0.0002145 -0.0006921 -0.0000007 -0.0004524 0.0000058 -0.0003466 0.0000035 -0.0003168 -0.0001260 -0.0001463 0.0000267 -0.0005315 -0.0000189 -0.0004787 0.0005972 -0.0008640 -0.0001203 -0.0003001 0.0000625 0.0001658 0.0000657 -0.0004782 -0.0000039 -0.0003542 -0.0000064 -0.0004298 -0.0002342 -0.0004080 -0.0000423 -0.0003922 0.0000177 -0.0004192 -0.0001851 -0.0004913 0.0003268 -0.0007422 0.0000279 -0.0004715 -0.0000013 -0.0003814 0.0000276 -0.0004731 0.0012562 -0.0015005 0.0001253 -0.0005817 -0.0000043 -0.0003792 -0.0000146 -0.0004302 -0.0000612 0.0013752 0.0000402 -0.0004485 0.0000018 -0.0003144 -0.0000399 -0.0005445 0.0004151 -0.0013746 0.0000220 -0.0003313 -0.0000020 -0.0002259 -0.0000658 -0.0003211 0.0000369 -0.0002428 -0.0000203 -0.0003434 -0.0005140 0.0003715 0.0000044 -0.0002937 -0.0000105 -0.0002446 -0.0000871 -0.0005444 0.0001927 -0.0009558 0.0000168 -0.0003680 -0.0000463 -0.0004984 -0.0000205 -0.0005681 -0.0000950 -0.0007950 -0.0001284 -0.0003687 0.0000241 -0.0003481 0.0000058 -0.0002963 -0.0000081 -0.0005156 0.0000505 -0.0005739 -0.0000135 -0.0003871 -0.0000475 -0.0005446 0.0004282 -0.0007863 0.0000035 -0.0002881 -0.0004602 0.0001955 -0.0000342 -0.0004357 -0.0000026 -0.0003668 0.0000889 -0.0005168 0.0000698 -0.0006514 0.0000038 -0.0002182 0.0000211 -0.0001203 -0.0003465 -0.0011367 0.0011102 -0.0016646 0.0000292 -0.0003838 -0.0000000 -0.0003243 -0.0000120 -0.0003531 -0.0003228 0.0001001 0.0000856 -0.0003179 0.0000246 -0.0002019 0.0000463 -0.0003141 0.0001040 -0.0000155 0.0000739 -0.0003315 -0.0000375 -0.0001434 0.0000178 -0.0000636 -0.0000822 -0.0004319 0.0000463 -0.0002976 0.0000117 -0.0002912 0.0002162 -0.0004206 -0.0000189 -0.0001098 -0.0000020 -0.0000288 -0.0000182 -0.0002896 0.0000061 -0.0002085
0.0000755 -0.0005499 -0.0005767 -0.0001365 -0.0034567 0.0017938 -0.0000403 -0.0003680 -0.0000380 -0.0003058 -0.0000200 -0.0003101 0.0004340 -0.0004972 0.0002652 -0.0002988 0.0000182 -0.0003046 0.0000070 -0.0002435 0.0000177 -0.0001601 0.0000482 -0.0001136 0.0000097 -0.0003834 0.0000130 -0.0003626 0.0001928 -0.0008133 -0.0001004 -0.0001718 -0.0009716 0.0008178 0.0000372 -0.0002955 0.0000069 -0.0002225 -0.0000018 -0.0002703 0.0000143 -0.0003305 -0.0000209 -0.0002529 0.0000148 -0.0002499 -0.0014713 0.0007287 -0.0025473 0.0023457 0.0000022 -0.0002461 -0.0000184 -0.0002409 -0.0000147 -0.0002512 -0.0025546 0.0018380 -0.0000290 -0.0002346 -0.0000024 -0.0002130 0.0000003 -0.0002174 0.0006227 0.0008366 0.0000009 -0.0002570 0.0000132 -0.0001993 -0.0000389 -0.0003034 -0.0006375 -0.0005047 0.0000593 -0.0001368 -0.0000060 -0.0000197 -0.0000258 -0.0000787 0.0000237 -0.0000610 -0.0000129 -0.0001572 -0.0002374 0.0003942 0.0000048 -0.0000366 0.0000086 -0.0001277 0.0000007 -0.0004277 0.0000282 -0.0005720 -0.0000459 -0.0001620 -0.0000552 -0.0003461 -0.0000093 -0.0003598 0.0005343 -0.0000929 -0.0001343 -0.0002789 0.0000240 -0.0002054 0.0000048 -0.0001720 -0.0000202 -0.0003573 0.0000556 -0.0003933 -0.0000055 -0.0002839 -0.0000438 -0.0004493 0.0003626 -0.0008313 -0.0000347 -0.0001367 0.0000347 -0.0002672 -0.0000208 -0.0003101 0.0000027 -0.0002790 0.0000484 -0.0003837 0.0000564 -0.0009664 0.0000028 -0.0001533 0.0000450 -0.0000763 -0.0014088 0.0003710 0.0010572 -0.0005678 0.0000473 -0.0003724 0.0000066 -0.0002623 0.0000002 -0.0003044 -0.0001924 0.0001295 0.0000639 -0.0002386 0.0000151 -0.0001595 0.0000223 -0.0002501 -0.0005188 0.0005561 0.0000443 -0.0001810 -0.0000199 -0.0000856 -0.0000076 0.0000461 0.0010400 -0.0014219 0.0000297 -0.0001997 -0.0000053 -0.0001763 0.0002801 -0.0005570 -0.0000059 -0.0000887 -0.0000131 0.0000251 0.0002675 -0.0004564 0.0000180 -0.0001401
0.0000073 -0.0003762 -0.0004690 -0.0002656 -0.0045534 0.0024917 -0.0000601 -0.0002687 -0.0000258 -0.0002517 -0.0000772 -0.0001935 -0.0002850 -0.0000270 0.0002454 -0.0003072 -0.0000081 -0.0002731 0.0000082 -0.0001823 -0.0000109 -0.0000788 -0.0001492 0.0001171 0.0000113 -0.0002963 -0.0000422 -0.0002629 0.0000101 -0.0001533 -0.0000257 -0.0002528 -0.0009381 0.0008890 -0.0000259 -0.0002356 0.0000045 -0.0002056 0.0000034 -0.0002535 -0.0000383 -0.0002450 -0.0000040 -0.0002432 0.0000521 -0.0002626 -0.0002086 -0.0003522 -0.0003634 0.0007791 -0.0001166 -0.0001232 -0.0000171 -0.0002099 -0.0000354 -0.0001279 -0.0026077 0.0016744 -0.0000851 -0.0001277 0.0000115 -0.0001601 0.0000695 -0.0002503 0.0020739 -0.0020655 -0.0000476 -0.0001561 -0.0000036 -0.0001736 -0.0000226 -0.0001107 0.0003341 -0.0001696 0.0000811 -0.0001527 -0.0000173 -0.0000026 0.0000356 -0.0002186 0.0000115 0.0000049 -0.0000001 0.0000114 -0.0002459 0.0001633 0.0000009 0.0000666 0.0000393 -0.0001599 -0.0000177 -0.0003539 0.0002196 -0.0005192 -0.0000444 -0.0001415 -0.0000491 -0.0003341 0.0000510 -0.0003304 0.0003911 -0.0003801 -0.0005077 0.0000441 0.0000182 -0.0002083 0.0000070 -0.0001380 -0.0000089 -0.0003453 -0.0000938 -0.0001326 0.0000073 -0.0002555 -0.0000468 -0.0004168 0.0002413 -0.0009888 -0.0000370 -0.0001771 0.0008692 -0.0009119 -0.0000489 -0.0002662 0.0000103 -0.0002620 0.0000590 -0.0004040 -0.0000186 -0.0011595 0.0000138 -0.0001953 0.0000219 -0.0001560 -0.0018980 0.0016443 0.0027284 -0.0027177 0.0000509 -0.0003841 0.0000098 -0.0002613 0.0000004 -0.0003220 -0.0000782 0.0001572 0.0000708 -0.0003118 0.0000265 -0.0002114 0.0000452 -0.0002975 -0.0000316 -0.0001858 0.0000600 -0.0001488 0.0000052 -0.0000712 0.0000037 0.0001000 0.0005660 -0.0017539 0.0000800 -0.0002571 -0.0000087 -0.0001563 0.0003186 -0.0004972 0.0000166 -0.0000365 0.0000185 0.0000380 0.0003157 -0.0005199 0.0000213 -0.0001473
0.0000195 -0.0004027 0.0000438 -0.0006346 0.0026861 -0.0024339 -0.0000120 -0.0003404 -0.0000144 -0.0002963 -0.0000919 -0.0002174 0.0000810 -0.0006967 0.0004319 -0.0006120 -0.0000461 -0.0002903 0.0000140 -0.0001966 -0.0000390 -0.0000906 0.0000470 -0.0000211 0.0000233 -0.0003306 -0.0000427 -0.0002925 -0.0005456 0.0003477 -0.0000442 -0.0003686 -0.0013098 0.0016546 0.0000054 -0.0002964 0.0000035 -0.0002625 -0.0000063 -0.0002946 -0.0001515 -0.0002458 -0.0000073 -0.0003117 0.0000024 -0.0002980 0.0011466 -0.0017687 0.0007170 -0.0002240 -0.0000440 -0.0002699 -0.0000016 -0.0002436 -0.0000006 -0.0001706 -0.0003484 -0.0001221 -0.0001007 -0.0002561 0.0000118 -0.0001942 0.0000883 -0.0003545 0.0020657 -0.0022833 -0.0000453 -0.0001433 -0.0000098 -0.0001984 0.0000116 -0.0000216 -0.0005861 0.0010270 0.0000616 -0.0002071 -0.0000069 -0.0000639 0.0001160 -0.0001295 0.0000163 -0.0000092 0.0000096 0.0000600 0.0001334 -0.0001695 0.0000044 0.0000586 0.0000039 -0.0001689 -0.0000207 -0.0003812 0.0002088 -0.0004266 -0.0000085 -0.0001682 -0.0000337 -0.0003430 0.0000017 -0.0003326 -0.0001206 -0.0000952 -0.0004652 0.0000329 0.0000066 -0.0001872 0.0000043 -0.0001295 -0.0000250 -0.0003988 -0.0000770 -0.0000135 -0.0000167 -0.0001906 -0.0000321 -0.0003459 0.0000490 -0.0004945 0.0000114 -0.0002253 -0.0002524 0.0001120 -0.0000415 -0.0002078 0.0000155 -0.0001909 0.0000622 -0.0003140 -0.0002397 -0.0003744 0.0000017 -0.0001285 0.0000324 -0.0001277 -0.0035385 0.0020269 0.0019603 -0.0020863 0.0000586 -0.0002359 0.0000135 -0.0001886 0.0000105 -0.0001183 -0.0001476 0.0004217 0.0000356 -0.0001919 0.0000357 -0.0001239 0.0000748 -0.0002069 -0.0000015 0.0000219 0.0000703 0.0000727 0.0000518 0.0001647 0.0000688 0.0003516 -0.0002004 -0.0009100 0.0000319 -0.0000947 -0.0000043 -0.0000489 0.0004274 -0.0000404 0.0000613 0.0002808 0.0000419 0.0002197 -0.0001122 -0.0000952 0.0000245 -0.0000646
0.0001417 -0.0003340 -0.0001803 -0.0000848 0.0028229 -0.0027891 0.0000030 -0.0001762 0.0000006 -0.0001642 -0.0000540 -0.0000740 -0.0005725 0.0000369 -0.0001192 0.0001013 -0.0000631 -0.0000640 0.0000104 -0.0000667 -0.0000233 0.0000739 0.0000142 0.0002376 0.0000146 -0.0001626 -0.0000291 -0.0001675 -0.0007458 0.0001681 -0.0000549 -0.0001153 -0.0007964 0.0008565 0.0000604 -0.0001055 0.0000071 -0.0000930 0.0000549 -0.0001555 0.0001117 -0.0003198 -0.0000180 -0.0001427 -0.0000095 -0.0000956 0.0012780 -0.0012868 0.0002382 -0.0006439 0.0000993 -0.0001885 -0.0000139 -0.0001067 0.0000268 -0.0000164 0.0001891 0.0012427 -0.0000408 -0.0001625 0.0000045 -0.0000463 0.0000512 -0.0000601 -0.0002452 0.0009048 -0.0000456 0.0000059 -0.0000219 -0.0000345 0.0000102 0.0001703 -0.0009820 0.0003854 0.0000172 0.0000489 0.0000087 0.0001247 0.0002421 0.0000031 0.0000221 0.0001331 0.0000035 0.0001553 0.0001721 0.0002473 0.0000033 0.0002986 0.0000275 0.0000194 -0.0000731 -0.0001352 0.0000219 -0.0000871 -0.0000332 0.0000043 -0.0000318 -0.0001501 -0.0000067 -0.0002042 -0.0013540 0.0008521 0.0000427 -0.0001762 -0.0000106 -0.0000516 0.0000004 -0.0000481 -0.0000339 -0.0003473 -0.0000490 0.0001191 -0.0000094 -0.0000962 -0.0000041 -0.0002171 -0.0000465 -0.0002013 -0.0000394 -0.0001141 -0.0007444 0.0003506 -0.0000224 -0.0001267 0.0000111 -0.0000816 0.0000545 -0.0001864 0.0001440 -0.0004711 -0.0000159 -0.0000710 -0.0000087 -0.0001275 0.0002780 -0.0011580 -0.0010428 -0.0003099 0.0000665 -0.0002079 0.0000129 -0.0001664 0.0000099 -0.0000951 -0.0000364 0.0001721 -0.0000004 -0.0001367 0.0000222 -0.0000882 0.0000394 -0.0001347 -0.0004436 0.0007760 0.0000229 0.0001758 0.0000585 0.0002297 0.0000723 0.0003803 0.0001490 -0.0000800 0.0000274 -0.0000081 0.0000148 0.0000014 0.0001143 0.0000098 0.0000470 0.0002247 0.0000264 0.0001955 -0.0004380 0.0003161 -0.0000078 -0.0000123
0.0000083 -0.0001552 -0.0003807 0.0001196 -0.0018186 -0.0001616 0.0000059 -0.0001088 -0.0000141 -0.0001183 -0.0000401 -0.0000526 -0.0008629 0.0004583 -0.0001068 -0.0000980 -0.0000093 -0.0000792 0.0000099 -0.0000291 -0.0000056 0.0001030 0.0000042 0.0001970 0.0000052 -0.0000995 -0.0000297 -0.0001643 -0.0010604 0.0005172 0.0000647 -0.0001937 -0.0011972 0.0000938 0.0000731 -0.0001187 0.0000154 -0.0001009 0.0000524 -0.0001643 0.0002519 -0.0003436 -0.0000173 -0.0001281 0.0000191 -0.0001165 0.0003400 -0.0007956 0.0012859 -0.0014486 0.0001300 -0.0002006 -0.0000157 -0.0000835 0.0000935 -0.0000295 0.0019621 -0.0003250 -0.0000064 -0.0000959 0.0000084 -0.0000169 -0.0000204 0.0000024 0.0011731 -0.0007994 -0.0000311 -0.0000032 -0.0000164 0.0000044 0.0000116 0.0002501 -0.0001562 -0.0003478 0.0000749 -0.0000124 0.0000106 0.0001091 0.0001996 -0.0002350 0.0000180 0.0001586 0.0000095 0.0002283 -0.0001339 0.0004464 0.0000320 0.0002583 0.0000151 0.0000060 -0.0000352 -0.0001263 0.0000072 -0.0000827 -0.0000298 -0.0000037 -0.0000395 -0.0001148 0.0000057 -0.0001511 -0.0022876 0.0009018 -0.0000086 -0.0000291 -0.0000133 -0.0000671 0.0000041 -0.0000484 -0.0000136 -0.0003163 0.0001059 -0.0000022 0.0000158 -0.0001274 -0.0000067 -0.0001908 0.0005003 -0.0007947 -0.0000486 -0.0001504 -0.0002567 -0.0001267 0.0000027 -0.0001518 0.0000088 -0.0000789 0.0000377 -0.0001753 0.0001930 -0.0009260 -0.0000121 -0.0001383 -0.0000512 -0.0001588 0.0031134 -0.0048664 -0.0020525 0.0008217 0.0000369 -0.0002576 0.0000141 -0.0001877 0.0000155 -0.0002601 0.0002410 -0.0003253 0.0000357 -0.0002495 0.0000164 -0.0001375 0.0000921 -0.0002252 -0.0005552 0.0003031 0.0000043 0.0000094 0.0000090 0.0001234 0.0000312 0.0002760 0.0001708 -0.0008777 0.0000971 -0.0000906 0.0000378 -0.0000271 -0.0002007 -0.0000149 -0.0000092 0.0000004 0.0000039 0.0000704 -0.0000491 -0.0001882 -0.0000462 0.0000083
0.0000088 -0.0002090 -0.0003690 -0.0000198 -0.0032069 0.0024112 -0.0000318 -0.0001408 -0.0000336 -0.0001501 -0.0000106 -0.0001503 -0.0006310 0.0005244 0.0000254 -0.0002919 0.0000048 -0.0001726 0.0000106 -0.0000549 0.0000040 0.0000259 0.0000284 0.0000925 0.0000128 -0.0001701 -0.0000264 -0.0002074 -0.0007181 0.0005241 0.0000714 -0.0002655 -0.0024512 0.0010093 0.0000097 -0.0001387 0.0000264 -0.0001824 0.0000261 -0.0002244 0.0005284 -0.0003087 0.0000072 -0.0002059 0.0000318 -0.0001850 -0.0005689 -0.0005565 0.0017270 -0.0005933 -0.0000017 -0.0001870 -0.0000015 -0.0001356 0.0000537 -0.0000681 0.0016388 -0.0023073 -0.0000866 -0.0001158 0.0000136 -0.0000765 0.0000050 -0.0001112 0.0004016 0.0004088 -0.0000105 -0.0000538 -0.0000067 -0.0000126 0.0000164 0.0001635 -0.0000259 -0.0000145 0.0001393 -0.0001495 0.0000225 0.0000313 0.0002063 -0.0001896 0.0000129 0.0001149 0.0000036 0.0001950 0.0000829 0.0000754 0.0000340 0.0001457 0.0000127 -0.0000192 0.0000133 -0.0001657 0.0000368 -0.0000760 -0.0000061 0.0000121 -0.0000329 -0.0000828 -0.0000160 -0.0000982 -0.0013647 0.0002021 0.0000811 -0.0000515 0.0000090 -0.0000176 0.0000012 -0.0000162 -0.0000040 -0.0001979 0.0000936 -0.0000420 0.0000240 -0.0000594 0.0000243 -0.0001186 0.0005113 -0.0008260 0.0000014 -0.0000678 0.0001079 0.0002548 0.0000439 -0.0000290 0.0000085 -0.0000142 0.0000588 -0.0001197 0.0002652 -0.0007067 0.0000038 -0.0000454 0.0000160 0.0000536 0.0019677 -0.0033091 -0.0005448 0.0005641 0.0000293 -0.0001185 0.0000250 -0.0000738 0.0000248 -0.0000948 0.0001703 0.0000092 0.0000556 -0.0000887 0.0000215 -0.0000374 0.0001264 -0.0000842 0.0000343 -0.0002090 0.0000160 0.0001588 -0.0000005 0.0002421 0.0000428 0.0003850 -0.0001401 -0.0008051 0.0000299 0.0001102 0.0000375 0.0000839 -0.0000968 -0.0000277 -0.0000161 0.0001229 -0.0000114 0.0001529 0.0002484 -0.0002818 -0.0000376 0.0001233
0.0000717 -0.0000680 -0.0003251 0.0003357 0.0024203 -0.0036388 -0.0000654 0.0000564 -0.0000120 -0.0000145 -0.0000020 0.0000101 -0.0000787 0.0003093 0.0004585 -0.0003314 -0.0000524 0.0000415 0.0000050 0.0000809 -0.0000045 0.0002002 -0.0000640 0.0004370 0.0000005 -0.0000180 0.0000072 -0.0000113 -0.0001717 0.0003122 -0.0000060 0.0000591 -0.0017579 0.0012767 -0.0000177 0.0001276 0.0000261 -0.0000064 0.0000018 -0.0000042 0.0003502 0.0000353 0.0000105 -0.0000240 -0.0000057 0.0000260 -0.0000705 -0.0007291 0.0008002 -0.0003586 -0.0000098 0.0000304 -0.0000050 -0.0000121 -0.0000418 0.0001714 0.0013974 -0.0020276 -0.0000120 0.0000654 0.0000049 0.0000606 0.0000089 0.0001339 -0.0010700 0.0013853 0.0000068 0.0000875 0.0000113 0.0001582 -0.0000229 0.0001869 -0.0020725 0.0002972 0.0000462 0.0001599 0.0000286 0.0002341 0.0002773 -0.0000325 0.0000140 0.0002582 -0.0000162 0.0001935 0.0000936 0.0002979 0.0000227 0.0003465 0.0000088 0.0001871 -0.0000264 0.0000991 -0.0001311 0.0003367 0.0000682 0.0001506 -0.0000216 0.0001175 0.0000512 0.0000587 -0.0018406 0.0006411 -0.0000893 0.0001662 0.0000028 0.0001420 -0.0000070 0.0000949 -0.0000199 0.0000033 -0.0001396 0.0002086 0.0000100 0.0000811 0.0000302 0.0000136 -0.0005092 0.0003263 -0.0000002 0.0000834 -0.0000166 0.0004825 0.0000345 0.0001506 0.0000006 0.0000963 0.0000589 -0.0000276 0.0002217 -0.0003385 0.0000170 0.0000453 0.0000845 0.0001424 0.0052657 -0.0035718 -0.0039749 0.0029089 0.0000782 -0.0001012 0.0000304 -0.0000139 0.0000206 -0.0000160 0.0001731 -0.0000986 0.0000583 -0.0000066 0.0000254 -0.0000217 0.0000954 0.0000080 0.0000408 0.0001834 0.0001007 0.0001592 0.0000162 0.0002855 0.0000401 0.0003356 0.0012637 -0.0014009 0.0000520 0.0001453 0.0000436 0.0001458 0.0002756 -0.0002797 -0.0000216 0.0001313 -0.0000129 0.0001116 -0.0000890 0.0002143 -0.0000084 0.0001359
0.0000805 0.0000285 -0.0002089 0.0003460 0.0008630 -0.0029121 -0.0000314 0.0000820 0.0000222 -0.0000176 0.0000023 0.0000761 0.0010033 -0.0002512 -0.0000550 0.0002183 -0.0000266 0.0000732 0.0000166 0.0001047 -0.0000282 0.0002529 0.0000359 0.0004606 0.0000064 0.0000346 0.0000230 -0.0000005 -0.0001962 0.0000321 0.0000149 0.0000799 -0.0009055 0.0007220 0.0000149 0.0000822 0.0000117 0.0000195 -0.0000022 0.0000096 -0.0000724 0.0000651 0.0000088 -0.0000010 0.0000011 0.0000306 0.0009278 -0.0008543 -0.0017702 0.0000868 0.0000753 -0.0000536 -0.0000220 0.0000107 -0.0000282 0.0002092 0.0001742 -0.0006240 0.0000078 -0.0000145 0.0000086 0.0000415 0.0000313 0.0000756 -0.0004601 -0.0005322 -0.0000117 0.0001117 0.0000196 0.0002250 -0.0000366 0.0000881 -0.0052962 0.0023193 -0.0000215 0.0002109 0.0000350 0.0002106 0.0001772 -0.0001700 0.0000173 0.0002548 -0.0000243 0.0001048 -0.0000320 0.0004246 0.0000337 0.0002634 0.0000017 0.0002122 -0.0000371 0.0001363 0.0000379 0.0001243 0.0000624 0.0001791 -0.0000293 0.0001664 0.0000875 0.0000723 -0.0025911 0.0015562 -0.0001328 0.0002281 -0.0000040 0.0001257 -0.0000049 0.0000950 -0.0000223 0.0000250 -0.0000121 0.0000506 -0.0000055 0.0000922 -0.0000102 0.0000718 -0.0003070 -0.0000335 0.0000258 0.0000315 0.0001041 -0.0001769 0.0000090 0.0001715 0.0000152 0.0000792 0.0000629 -0.0000469 -0.0000785 -0.0001259 -0.0000015 0.0000156 0.0001230 0.0000389 0.0081727 -0.0076022 -0.0039460 0.0025216 0.0000925 -0.0001810 0.0000327 -0.0000480 0.0000220 -0.0000885 0.0003330 -0.0005006 0.0000527 -0.0000822 0.0000246 -0.0000788 0.0000890 -0.0000421 -0.0005263 0.0000633 0.0001752 0.0000268 0.0000356 0.0002299 0.0000318 0.0002011 0.0014867 -0.0017406 0.0000614 0.0000697 0.0000703 0.0001091 0.0001646 0.0000342 -0.0000279 0.0000428 -0.0000012 -0.0000004 -0.0001667 0.0002763 0.0000355 0.0000515
0.0000378 0.0000292 -0.0001174 -0.0000151 0.0002108 0.0017399 0.0000087 -0.0000019 -0.0000111 -0.0000493 0.0000169 0.0000108 0.0004887 -0.0000795 -0.0006182 0.0008012 -0.0000064 -0.0000153 0.0000215 0.0000625 -0.0000456 0.0001910 0.0001878 0.0001051 0.0000054 0.0000117 0.0000138 -0.0000894 0.0005886 -0.0009760 -0.0000252 0.0000077 -0.0002253 0.0003559 -0.0000019 0.0000053 0.0000052 -0.0000457 0.0000063 -0.0000928 -0.0002720 0.0003877 0.0000041 -0.0000695 0.0000742 -0.0000704 0.0014470 -0.0019912 -0.0025253 0.0002679 0.0000489 -0.0001244 -0.0000180 -0.0000358 0.0000494 0.0000983 -0.0002679 -0.0012145 0.0000325 -0.0002072 0.0000457 -0.0000381 0.0000595 -0.0000530 0.0000258 0.0010048 -0.0000608 0.0000823 0.0000198 0.0001916 -0.0000495 0.0000479 -0.0018337 0.0023047 0.0000407 0.0000898 0.0000314 0.0001287 0.0000624 -0.0000250 0.0000274 0.0001865 -0.0000217 0.0000492 0.0001439 0.0000920 0.0000173 0.0001421 0.0000153 0.0001440 -0.0000237 0.0000970 0.0002408 -0.0000787 0.0000475 0.0001711 -0.0000111 0.0001442 0.0000844 0.0000650 -0.0005896 0.0011254 -0.0001966 0.0003168 0.0000083 0.0001408 -0.0000034 0.0001126 0.0000083 0.0000410 -0.0001330 0.0001961 -0.0000058 0.0001643 0.0000239 0.0001537 0.0006783 -0.0008942 0.0000766 0.0000010 0.0001918 -0.0002318 0.0000278 0.0001980 0.0000180 0.0001686 0.0000583 0.0000797 0.0003027 -0.0004207 -0.0000208 0.0000931 0.0000883 0.0000577 0.0017159 -0.0021465 -0.0009328 0.0010747 0.0000628 -0.0000075 0.0000416 0.0000622 0.0000199 0.0000617 -0.0000038 0.0001678 0.0000244 0.0000532 0.0000357 0.0000332 0.0001213 0.0000602 -0.0006326 0.0004363 0.0000711 0.0003147 0.0000521 0.0003471 0.0000542 0.0003705 -0.0000616 0.0002513 0.0000344 0.0002350 0.0000791 0.0002339 -0.0001166 0.0003682 -0.0000061 0.0001797 -0.0000123 0.0001279 0.0000209 0.0002957 0.0000421 0.0001770
-0.0000343 0.0002672 -0.0001384 0.0002318 0.0010463 -0.0003264 -0.0000232 0.0002392 -0.0000280 0.0001548 0.0000012 0.0001820 -0.0001943 0.0005225 0.0004561 0.0000605 -0.0000442 0.0001893 0.0000149 0.0001839 -0.0000302 0.0003277 0.0000110 0.0003587 -0.0000098 0.0002169 0.0000035 0.0001363 0.0007959 -0.0004732 -0.0000209 0.0002047 0.0005471 0.0000540 0.0000287 0.0002424 0.0000176 0.0001262 -0.0000348 0.0001347 0.0002020 0.0003536 0.0000019 0.0001206 0.0000548 0.0001464 0.0014495 -0.0016767 -0.0016555 -0.0007423 0.0000740 0.0000898 0.0000005 0.0001097 0.0000927 0.0002315 0.0007738 -0.0012272 0.0000574 0.0000386 0.0000459 0.0001657 0.0000502 0.0002588 0.0015290 -0.0000263 -0.0000340 0.0002417 0.0000387 0.0002593 -0.0000571 0.0003119 0.0001117 0.0016005 0.0000886 0.0002450 0.0000263 0.0003251 0.0001506 0.0002508 0.0000226 0.0003122 -0.0000092 0.0002348 0.0003264 0.0001383 0.0000159 0.0003416 0.0000059 0.0002774 0.0000251 0.0002690 0.0000233 0.0003234 0.0000344 0.0002994 -0.0000010 0.0003005 -0.0000333 0.0003442 0.0002523 0.0003384 -0.0005034 0.0005812 0.0000056 0.0002580 -0.0000075 0.0002058 0.0000169 0.0001429 -0.0002266 0.0003686 -0.0000052 0.0002724 0.0000403 0.0002648 0.0007574 -0.0004334 0.0000474 0.0001010 0.0006548 -0.0005769 0.0000408 0.0003037 0.0000164 0.0002812 0.0000493 0.0001911 0.0005971 -0.0005771 -0.0000022 0.0001586 0.0000761 0.0000892 -0.0042647 0.0044259 -0.0025404 0.0020489 0.0000646 0.0000650 0.0000393 0.0001304 0.0000271 0.0001110 -0.0001875 0.0004940 -0.0000032 0.0001541 0.0000424 0.0000624 0.0001340 0.0001023 -0.0002108 0.0003304 0.0000047 0.0003966 0.0000491 0.0003841 0.0000509 0.0004063 0.0006114 -0.0002861 0.0000786 0.0002469 0.0000851 0.0003073 0.0002674 -0.0000981 -0.0000075 0.0001854 -0.0000171 0.0001011 0.0000326 0.0002687 0.0000305 0.0002387
0.0000065 0.0002953 -0.0004877 0.0006144 -0.0044081 0.0014229 -0.0000284 0.0003062 -0.0000066 0.0002012 -0.0000160 0.0002767 0.0000040 0.0007461 0.0000209 0.0005322 -0.0000909 0.0002788 0.0000151 0.0002252 -0.0000308 0.0003242 -0.0003043 0.0006207 0.0000035 0.0002642 -0.0000036 0.0002116 0.0006492 -0.0004018 0.0001361 0.0001540 0.0014567 -0.0013126 0.0000087 0.0003176 0.0000267 0.0001676 -0.0000364 0.0001547 0.0002080 0.0001047 0.0000023 0.0001777 0.0000418 0.0001950 0.0020235 -0.0015766 0.0003139 -0.0012234 0.0000274 0.0002068 -0.0000061 0.0001423 0.0000447 0.0002474 -0.0004898 0.0003631 -0.0000109 0.0002102 0.0000239 0.0002110 0.0001057 0.0002307 0.0021235 -0.0017804 -0.0000238 0.0002512 0.0000364 0.0002735 -0.0000117 0.0003145 0.0003737 0.0002616 0.0000406 0.0002619 0.0000202 0.0003183 0.0002416 0.0000735 0.0000078 0.0002912 -0.0000067 0.0002531 -0.0000063 0.0003717 0.0000221 0.0003290 -0.0000008 0.0002924 0.0000584 0.0003057 -0.0001229 0.0002885 -0.0000115 0.0003542 -0.0000083 0.0003635 -0.0000547 0.0004047 0.0001374 0.0003295 -0.0005411 0.0006577 -0.0000168 0.0002778 -0.0000043 0.0002117 0.0000094 0.0001850 -0.0001632 0.0002558 0.0000316 0.0002388 0.0000350 0.0002801 0.0004844 -0.0003842 -0.0000011 0.0001716 0.0005043 -0.0002823 0.0000157 0.0003612 0.0000228 0.0002763 0.0000863 0.0001282 0.0009097 -0.0007089 -0.0000051 0.0001478 0.0000285 0.0001350 -0.0014031 0.0023244 -0.0042720 0.0032727 0.0000799 0.0000285 0.0000466 0.0001089 0.0000447 0.0000638 -0.0002347 0.0003886 0.0000339 0.0001029 0.0000358 0.0000336 0.0000990 0.0001197 0.0003697 -0.0001810 0.0000311 0.0003111 0.0000470 0.0003509 0.0000517 0.0003327 0.0014219 -0.0010188 0.0001117 0.0002059 0.0000724 0.0002982 0.0001483 -0.0000022 -0.0000190 0.0001011 -0.0000113 0.0000083 -0.0001930 0.0003275 0.0000412 0.0001943
0.0000095 0.0002959 -0.0003449 0.0006974 -0.0051913 0.0029046 -0.0000280 0.0002656 -0.0000182 0.0001573 -0.0000989 0.0003379 0.0005376 -0.0000174 -0.0005865 0.0010411 -0.0000681 0.0002215 0.0000189 0.0001981 -0.0000354 0.0002694 -0.0002714 0.0004201 -0.0000033 0.0002339 0.0000081 0.0001731 0.0009236 -0.0009881 0.0000950 0.0001125 0.0001942 -0.0005048 0.0000096 0.0002433 0.0000121 0.0001411 0.0000290 0.0000494 -0.0002014 0.0003262 0.0000097 0.0001417 0.0001158 0.0000744 0.0019952 -0.0017483 0.0009080 -0.0019773 0.0000015 0.0001864 -0.0000294 0.0001073 0.0000153 0.0002029 -0.0004418 -0.0003687 0.0000854 0.0001721 0.0000255 0.0001661 0.0001298 0.0001682 0.0007449 -0.0003508 -0.0000112 0.0001474 0.0000303 0.0002339 0.0000061 0.0001383 0.0013687 -0.0005746 0.0001060 0.0001633 0.0000184 0.0002457 0.0002197 0.0000499 -0.0000009 0.0002191 -0.0000218 0.0001377 -0.0003215 0.0006032 0.0000343 0.0002680 -0.0000324 0.0002866 0.0000096 0.0003520 0.0000055 0.0002796 -0.0000021 0.0003666 0.0000093 0.0003764 0.0000388 0.0003493 0.0000170 0.0008194 -0.0002533 0.0006699 -0.0000160 0.0003519 -0.0000069 0.0002528 0.0000039 0.0002740 -0.0000292 0.0001874 0.0000432 0.0002864 0.0000727 0.0003353 0.0003976 -0.0002917 0.0000188 0.0002792 -0.0008835 0.0013359 0.0000192 0.0004521 0.0000124 0.0003665 0.0000802 0.0002232 0.0007156 -0.0003948 -0.0000052 0.0002614 0.0000080 0.0002517 0.0003907 0.0003305 -0.0027718 0.0031909 0.0000717 0.0002004 0.0000587 0.0002328 0.0000456 0.0002361 -0.0001424 0.0004588 0.0000579 0.0002128 0.0000355 0.0001672 0.0000793 0.0002837 0.0004653 0.0001289 -0.0000171 0.0006038 0.0000503 0.0004827 0.0000569 0.0005356 0.0013933 -0.0006999 0.0000965 0.0003634 0.0000790 0.0003994 0.0002280 0.0002740 -0.0000223 0.0002457 -0.0000178 0.0001717 -0.0000586 0.0004410 0.0000320 0.0003216
0.0000463 0.0004712 -0.0001062 0.0007435 -0.0004860 0.0029455 -0.0000493 0.0004992 -0.0000253 0.0003438 -0.0000485 0.0004896 0.0007331 -0.0001186 -0.0001327 0.0009170 -0.0000047 0.0003588 0.0000285 0.0003201 -0.0000545 0.0004617 -0.0002024 0.0006194 -0.0000107 0.0004175 0.0000274 0.0003745 0.0008829 -0.0005560 -0.0000166 0.0004241 -0.0015049 0.0020431 0.0000808 0.0003818 0.0000024 0.0003149 0.0000400 0.0002404 0.0000763 0.0004525 0.0000288 0.0003253 0.0001231 0.0002761 0.0013799 -0.0008885 0.0007367 -0.0011093 0.0000497 0.0003315 -0.0000468 0.0002298 0.0000072 0.0003873 0.0005060 0.0000595 0.0001252 0.0003889 0.0000340 0.0003254 0.0000879 0.0004691 0.0011278 -0.0005782 0.0000177 0.0002453 -0.0000063 0.0003058 -0.0000486 0.0002512 0.0022436 -0.0009724 0.0001007 0.0003461 0.0000113 0.0003775 0.0000069 0.0003672 -0.0000005 0.0002635 -0.0000382 0.0001551 -0.0002993 0.0006974 0.0000497 0.0003574 -0.0000212 0.0003366 -0.0000113 0.0004696 0.0003176 0.0003668 -0.0000131 0.0004108 0.0000295 0.0004416 -0.0000060 0.0004592 0.0006310 0.0004517 -0.0000750 0.0006942 -0.0000110 0.0003861 -0.0000047 0.0003085 0.0000032 0.0003387 0.0000431 0.0002270 0.0000067 0.0003590 0.0000719 0.0003755 0.0004018 -0.0001590 0.0000666 0.0003045 -0.0004021 0.0008112 0.0000387 0.0004727 0.0000052 0.0004096 0.0000342 0.0003012 0.0001213 -0.0000996 -0.0000010 0.0003079 0.0000999 0.0001852 0.0012412 0.0006753 0.0003586 0.0008491 0.0000550 0.0002430 0.0000600 0.0002762 0.0000270 0.0002768 0.0002674 0.0000310 0.0000295 0.0002583 0.0000347 0.0001816 0.0001110 0.0003050 0.0009771 -0.0006731 0.0000050 0.0006380 0.0000458 0.0004867 0.0000366 0.0005488 0.0012338 -0.0009437 0.0000785 0.0003496 0.0000896 0.0004092 0.0003392 0.0001081 -0.0000302 0.0002194 -0.0000036 0.0001471 0.0001727 0.0003182 0.0000075 0.0003333
0.0000463 0.0005228 -0.0002861 0.0009020 -0.0004476 0.0031000 -0.0000116 0.0005047 -0.0000323 0.0003891 0.0000340 0.0004372 0.0001529 0.0003628 -0.0004622 0.0009735 0.0000700 0.0003420 0.0000187 0.0003606 -0.0000307 0.0004259 -0.0000558 0.0007012 -0.0000110 0.0004719 -0.0000197 0.0004469 0.0004339 0.0000759 0.0000150 0.0004846 0.0011268 -0.0005697 0.0000390 0.0004588 0.0000147 0.0003379 0.0000537 0.0002576 0.0000526 0.0005818 0.0000139 0.0003925 0.0000697 0.0003685 0.0001825 0.0001230 0.0010965 -0.0004747 0.0000055 0.0003401 -0.0000455 0.0002391 -0.0000013 0.0003848 0.0011438 -0.0005115 0.0001930 0.0003244 0.0000405 0.0003445 0.0000131 0.0005274 -0.0004866 0.0007618 -0.0000241 0.0002914 -0.0000195 0.0002960 -0.0000288 0.0002273 0.0017818 -0.0005996 0.0000225 0.0003994 0.0000108 0.0003498 -0.0001482 0.0003478 -0.0000118 0.0002285 -0.0000437 0.0001175 0.0001408 0.0002402 0.0000284 0.0003268 -0.0000118 0.0002999 0.0000422 0.0004232 0.0000321 0.0005908 -0.0000217 0.0003947 0.0000347 0.0004072 -0.0000380 0.0005156 -0.0001749 0.0007286 0.0000294 0.0004943 -0.0000167 0.0003377 0.0000089 0.0002843 0.0000082 0.0003217 0.0000110 0.0002295 -0.0000103 0.0003357 0.0000735 0.0003388 -0.0000134 0.0000562 0.0000435 0.0003084 0.0006361 -0.0003031 0.0000675 0.0004240 0.0000091 0.0003376 0.0000459 0.0002292 0.0002125 -0.0003844 0.0000045 0.0002539 0.0001433 0.0001324 -0.0015384 0.0015468 0.0009530 -0.0005204 0.0000581 0.0001706 0.0000710 0.0002322 0.0000322 0.0002030 0.0001490 0.0001541 0.0000213 0.0002380 0.0000335 0.0001297 0.0001030 0.0002528 0.0006751 -0.0008909 0.0000557 0.0005323 0.0000482 0.0004225 0.0000656 0.0004357 -0.0005967 0.0010204 0.0001364 0.0002328 0.0000796 0.0003584 0.0000777 0.0002432 -0.0000307 0.0001061 0.0000059 0.0000553 -0.0000589 0.0003374 0.0000562 0.0002234
-0.0000299 0.0005134 -0.0002396 0.0006517 -0.0096955 0.0068257 -0.0000180 0.0004519 -0.0000207 0.0003172 0.0000064 0.0003555 0.0000155 0.0003259 -0.0000568 0.0002646 0.0000468 0.0002960 0.0000160 0.0003106 -0.0000257 0.0003347 -0.0000533 0.0006139 -0.0000104 0.0004036 -0.0000883 0.0004377 -0.0009729 0.0012250 0.0000661 0.0003676 0.0015924 -0.0011943 0.0000499 0.0003967 0.0000216 0.0002723 0.0000380 0.0002220 -0.0001418 0.0006429 0.0000346 0.0003266 0.0001041 0.0002856 -0.0006009 0.0011532 -0.0005922 0.0005610 -0.0000046 0.0002757 -0.0000347 0.0001887 0.0000220 0.0002582 0.0010969 -0.0008580 0.0001467 0.0002375 0.0000319 0.0003040 0.0000184 0.0004364 -0.0001175 0.0004996 0.0000081 0.0002590 -0.0000269 0.0002689 -0.0000153 0.0001864 0.0020403 -0.0016019 0.0000126 0.0003738 0.0000158 0.0003038 0.0000441 0.0001653 -0.0000174 0.0002090 -0.0000339 0.0000966 0.0005824 -0.0000661 0.0000143 0.0003392 -0.0000362 0.0003217 0.0000250 0.0004833 -0.0003222 0.0008103 0.0000147 0.0003953 0.0000417 0.0004340 0.0000275 0.0005552 -0.0009989 0.0007408 0.0000022 0.0005993 -0.0000100 0.0004244 0.0000094 0.0003213 -0.0000053 0.0003956 0.0000226 0.0003943 0.0000082 0.0003917 0.0000753 0.0004555 -0.0001852 0.0004589 0.0000129 0.0004316 0.0004345 0.0001252 0.0000702 0.0005341 0.0000081 0.0004104 0.0000497 0.0003375 0.0001544 -0.0000138 0.0000096 0.0003322 0.0000849 0.0002547 0.0007992 -0.0005985 0.0003046 0.0005545 0.0000516 0.0003248 0.0000682 0.0003501 0.0000299 0.0003520 -0.0001437 0.0007304 0.0000278 0.0003454 0.0000382 0.0002524 0.0000752 0.0004095 0.0000439 0.0003801 0.0000677 0.0006767 0.0000515 0.0005404 0.0000951 0.0005898 -0.0006937 0.0018198 0.0001267 0.0003845 0.0000817 0.0004667 0.0001800 0.0004238 -0.0000267 0.0002532 -0.0000057 0.0001988 -0.0001677 0.0005765 0.0001023 0.0002855
-0.0000510 0.0006613 0.0000397 0.0004661 -0.0032705 0.0007819 -0.0000419 0.0006798 -0.0000345 0.0004866 -0.0000062 0.0004940 -0.0006906 0.0007998 0.0004983 0.0001942 -0.0000045 0.0004497 0.0000284 0.0003778 -0.0000684 0.0004619 -0.0001920 0.0006182 -0.0000091 0.0004930 -0.0000443 0.0005290 -0.0009365 0.0014043 0.0001009 0.0004826 -0.0002270 0.0015406 0.0000494 0.0004632 0.0000141 0.0003171 0.0000034 0.0003022 -0.0003528 0.0005727 0.0000433 0.0003782 0.0001571 0.0002850 0.0003554 0.0009982 -0.0016718 0.0024733 -0.0000425 0.0003719 -0.0000295 0.0002104 0.0000167 0.0002664 0.0015201 -0.0019339 0.0000050 0.0004334 0.0000222 0.0003098 0.0001136 0.0003360 0.0005819 0.0007731 0.0000244 0.0002362 -0.0000168 0.0002575 -0.0000245 0.0002305 0.0008147 -0.0011325 0.0000029 0.0003651 0.0000167 0.0002679 0.0001509 0.0000883 -0.0000139 0.0001827 -0.0000299 0.0001024 0.0001643 0.0000365 0.0000179 0.0002613 -0.0000230 0.0003001 -0.0000003 0.0005221 -0.0007796 0.0011442 0.0000454 0.0003579 0.0000540 0.0004336 0.0000477 0.0005083 0.0003278 -0.0003313 -0.0002165 0.0007895 -0.0000120 0.0004073 0.0000006 0.0003081 -0.0000325 0.0003765 -0.0000372 0.0004119 0.0000260 0.0003675 0.0000512 0.0004890 0.0001789 0.0001677 0.0000351 0.0003832 0.0009366 -0.0001606 0.0000689 0.0005233 0.0000079 0.0004121 0.0000342 0.0003424 0.0004095 -0.0001905 0.0000081 0.0002983 0.0000294 0.0002468 0.0001463 0.0021880 -0.0025404 0.0024529 0.0000685 0.0002780 0.0000529 0.0003192 0.0000249 0.0002947 -0.0001974 0.0006675 0.0000176 0.0002844 0.0000388 0.0002082 0.0000860 0.0003536 0.0000780 0.0007237 0.0000831 0.0005455 0.0000476 0.0004656 0.0000530 0.0005472 0.0009922 -0.0002547 0.0000419 0.0003981 0.0000864 0.0004261 -0.0000189 0.0004659 -0.0000258 0.0001955 -0.0000100 0.0001233 0.0000323 0.0003754 0.0000609 0.0002782
-0.0000093 0.0005915 0.0002911 0.0003116 -0.0001330 -0.0024188 -0.0000152 0.0006003 -0.0000410 0.0004529 -0.0000032 0.0004773 -0.0013350 0.0013190 0.0007641 0.0001431 -0.0000059 0.0003970 0.0000420 0.0003386 -0.0000652 0.0003996 -0.0002386 0.0005281 -0.0000187 0.0004718 0.0000300 0.0004257 0.0000223 0.0008803 0.0000802 0.0004734 0.0002090 0.0008728 -0.0000145 0.0004638 0.0000000 0.0002892 -0.0000288 0.0002582 -0.0006122 0.0006376 0.0000207 0.0003525 0.0000935 0.0002810 -0.0007035 0.0014443 -0.0009538 0.0018343 -0.0000506 0.0002986 -0.0000333 0.0001526 0.0000182 0.0002273 0.0015858 -0.0021782 0.0000186 0.0003735 0.0000225 0.0002543 0.0001287 0.0002483 0.0001489 0.0011675 -0.0000438 0.0002087 0.0000061 0.0001794 -0.0000177 0.0001600 -0.0020796 0.0013467 0.0000214 0.0002519 0.0000210 0.0001764 -0.0000357 0.0002150 -0.0000180 0.0001143 -0.0000415 0.0000676 -0.0000444 0.0000115 0.0000166 0.0001691 -0.0000183 0.0002204 0.0000366 0.0004014 -0.0007483 0.0010190 0.0000437 0.0002986 0.0000473 0.0003666 0.0000876 0.0003773 0.0002694 -0.0002030 0.0001625 0.0001771 -0.0000150 0.0002945 0.0000030 0.0002146 -0.0000410 0.0002764 0.0001941 -0.0000438 0.0000108 0.0002752 0.0000622 0.0003719 0.0001610 0.0003106 0.0000400 0.0002817 0.0005770 -0.0000704 0.0000860 0.0004037 0.0000062 0.0003182 0.0000479 0.0002204 0.0001598 0.0001260 0.0000148 0.0001901 0.0000353 0.0001530 -0.0001093 -0.0002886 -0.0001756 0.0002607 0.0000880 0.0001408 0.0000459 0.0002129 0.0000205 0.0001692 -0.0001628 0.0004069 0.0000183 0.0001869 0.0000367 0.0001131 0.0000111 0.0002682 0.0004408 0.0003303 0.0000851 0.0003868 0.0000278 0.0003541 0.0000277 0.0004246 0.0003394 0.0002099 0.0000339 0.0002914 0.0000844 0.0003021 0.0002271 0.0001166 -0.0000281 0.0000650 -0.0000119 -0.0000184 0.0001112 0.0002195 -0.0000067 0.0002172
0.0000120 0.0004417 0.0002755 0.0002426 -0.0006462 0.0001400 -0.0000031 0.0004401 -0.0000227 0.0003371 0.0000044 0.0003747 -0.0006877 0.0014154 -0.0001120 0.0007866 -0.0000035 0.0003067 0.0000411 0.0002756 -0.0000689 0.0003271 -0.0002795 0.0006284 -0.0000130 0.0004020 0.0000069 0.0003687 -0.0002471 0.0007438 0.0000305 0.0004141 0.0009983 -0.0002682 0.0000146 0.0004683 0.0000003 0.0002907 0.0000021 0.0002376 -0.0003562 0.0005233 0.0000404 0.0003399 -0.0000309 0.0003698 -0.0001866 0.0002785 0.0003196 -0.0000714 0.0000182 0.0003262 -0.0000544 0.0001748 0.0000600 0.0001981 0.0002742 -0.0007559 0.0000715 0.0003596 0.0000355 0.0002867 0.0000345 0.0004093 0.0011592 -0.0002510 -0.0000572 0.0002507 0.0000003 0.0001890 -0.0000264 0.0002214 -0.0013805 0.0005863 0.0000123 0.0003379 0.0000126 0.0002824 -0.0001785 0.0005017 -0.0000226 0.0001758 -0.0000389 0.0001397 0.0001295 0.0000915 0.0000013 0.0003499 -0.0000175 0.0002719 0.0000661 0.0004595 -0.0001401 0.0005971 -0.0000301 0.0004014 0.0000455 0.0004371 0.0000749 0.0004417 -0.0005466 0.0004304 0.0002672 0.0002289 -0.0000142 0.0003932 0.0000027 0.0002580 -0.0000335 0.0003352 0.0001154 0.0001197 -0.0000052 0.0003827 0.0000765 0.0004573 0.0000491 0.0007028 0.0000641 0.0003743 -0.0016650 0.0014427 0.0000475 0.0005138 0.0000046 0.0004160 0.0000542 0.0003360 -0.0002341 0.0008328 -0.0000012 0.0003143 0.0000080 0.0002445 0.0031298 -0.0037970 0.0027054 -0.0013472 0.0000836 0.0002869 0.0000421 0.0002992 0.0000152 0.0002866 -0.0000888 0.0003894 0.0000651 0.0002719 0.0000377 0.0002193 0.0000181 0.0003773 0.0004495 0.0001682 0.0000654 0.0004926 0.0000176 0.0003971 0.0000494 0.0004683 -0.0001399 0.0008766 0.0000573 0.0003322 0.0000661 0.0003477 -0.0000202 0.0001647 -0.0000407 0.0000532 -0.0000210 -0.0000537 0.0000934 0.0002411 0.0000076 0.0002028
-0.0000250 0.0005229 -0.0002777 0.0006380 0.0008719 0.0001426 -0.0000140 0.0004346 -0.0000175 0.0003112 -0.0000754 0.0004489 -0.0004902 0.0011539 -0.0013009 0.0016525 0.0000045 0.0002706 0.0000237 0.0002592 -0.0000656 0.0002732 -0.0002401 0.0006118 -0.0000036 0.0003480 -0.0000210 0.0003557 -0.0006724 0.0009242 -0.0000072 0.0004223 0.0003177 0.0001825 0.0000170 0.0004232 0.0000033 0.0002526 0.0000350 0.0001661 0.0003441 0.0000170 0.0000431 0.0002964 -0.0000494 0.0003441 -0.0005710 0.0003282 0.0011291 -0.0013116 0.0000001 0.0003081 -0.0000561 0.0001542 0.0000639 0.0001789 0.0022321 -0.0012629 0.0002135 0.0001600 0.0000438 0.0002338 0.0000421 0.0003398 0.0006923 -0.0001793 -0.0000530 0.0001621 -0.0000083 0.0001288 -0.0000159 0.0002352 -0.0022568 0.0018536 0.0000134 0.0002436 0.0000195 0.0002286 -0.0004229 0.0005554 -0.0000182 0.0001086 -0.0000232 0.0001222 -0.0000685 0.0004006 0.0000094 0.0002759 -0.0000089 0.0002154 0.0000724 0.0003627 0.0001878 0.0001765 -0.0000044 0.0003075 0.0000296 0.0003632 0.0000179 0.0003763 -0.0018408 0.0027400 -0.0001475 0.0006739 -0.0000004 0.0003077 -0.0000032 0.0001980 -0.0000342 0.0002259 -0.0000322 0.0001660 -0.0000152 0.0003326 0.0000727 0.0003923 -0.0002572 0.0007444 0.0000563 0.0003603 -0.0014436 0.0011635 0.0000303 0.0004674 0.0000123 0.0003408 0.0000373 0.0002546 -0.0001558 0.0003176 -0.0000048 0.0002724 -0.0000172 0.0002434 -0.0005357 0.0012716 -0.0003341 0.0016777 0.0000775 0.0001982 0.0000400 0.0002237 0.0000061 0.0001931 0.0001162 0.0000698 0.0000891 0.0001712 0.0000260 0.0001704 0.0000940 0.0002427 0.0001574 0.0000526 0.0000889 0.0003640 0.0000245 0.0002822 0.0000713 0.0003741 0.0012159 -0.0010429 0.0000394 0.0002569 0.0000644 0.0002687 -0.0002613 0.0000519 -0.0000563 -0.0000407 -0.0000368 -0.0001255 0.0000078 0.0000904 0.0000434 0.0000801
-0.0000801 0.0004726 -0.0000478 0.0003153 0.0024990 0.0007460 0.0000010 0.0002841 -0.0000131 0.0001945 -0.0000970 0.0003588 -0.0008257 0.0007403 -0.0005626 0.0007347 0.0000007 0.0001697 0.0000192 0.0001782 -0.0000709 0.0001715 0.0002043 0.0000781 -0.0000107 0.0002163 -0.0000228 0.0002209 -0.0005136 0.0006184 0.0001014 0.0002005 -0.0000578 0.0002996 -0.0000148 0.0002776 0.0000005 0.0001348 0.0000046 0.0000512 0.0001560 0.0001899 0.0000290 0.0001853 0.0000377 0.0001796 -0.0016148 0.0011505 0.0008424 -0.0009290 -0.0000239 0.0001674 -0.0000317 0.0000277 0.0000085 0.0001096 0.0012279 0.0001479 0.0001058 0.0000668 0.0000361 0.0001281 0.0000816 0.0002175 0.0011723 -0.0019914 -0.0000527 -0.0000006 -0.0000255 0.0000073 -0.0000028 0.0001375 -0.0018911 0.0010248 0.0000465 0.0000648 0.0000249 0.0001130 -0.0004799 0.0003628 -0.0000159 -0.0000182 -0.0000224 0.0000242 -0.0000062 0.0002879 0.0000263 0.0001349 -0.0000287 0.0001151 0.0000994 0.0001436 0.0003233 -0.0001325 0.0000589 0.0001310 0.0000065 0.0002034 0.0000092 0.0001727 -0.0025526 0.0034436 0.0000012 0.0002333 -0.0000005 0.0001417 -0.0000019 0.0000630 -0.0000479 0.0000492 0.0000068 -0.0000161 0.0000104 0.0001175 0.0000572 0.0002045 -0.0008624 0.0009504 0.0000249 0.0002526 0.0001185 -0.0001811 0.0000766 0.0002561 -0.0000034 0.0001884 0.0000281 0.0000740 -0.0001389 -0.0000704 0.0000096 0.0001372 0.0000312 0.0001416 -0.0017450 0.0019422 -0.0004578 0.0021195 0.0000767 0.0000302 0.0000370 0.0001112 -0.0000042 0.0000752 0.0001273 0.0000209 0.0000287 0.0001043 0.0000196 0.0000924 0.0001366 0.0001086 0.0007406 -0.0003032 0.0000746 0.0002761 0.0000167 0.0002338 0.0000493 0.0003786 0.0003908 -0.0002381 -0.0000022 0.0002709 0.0000539 0.0001962 0.0004065 -0.0003686 -0.0000494 -0.0000013 -0.0000464 -0.0000565 0.0000232 0.0001419 0.0000508 0.0000417
-0.0000615 0.0003824 0.0000890 0.0003650 0.0038431 0.0007592 -0.0000051 0.0003044 -0.0000213 0.0002360 -0.0000260 0.0002828 -0.0010644 0.0013547 -0.0000943 0.0001736 0.0000056 0.0002265 0.0000194 0.0002044 -0.0000782 0.0002459 0.0000947 0.0001268 -0.0000178 0.0002607 -0.0000263 0.0002926 -0.0003796 0.0003885 0.0000761 0.0002846 -0.0005961 0.0002885 -0.0000020 0.0003361 -0.0000000 0.0002017 0.0000102 0.0001430 -0.0000842 0.0002475 0.0000435 0.0002445 0.0000955 0.0001982 -0.0004014 0.0003024 -0.0001082 -0.0008258 -0.0000682 0.0003346 -0.0000236 0.0000673 -0.0000112 0.0001805 -0.0020430 0.0021499 -0.0000247 0.0003365 0.0000172 0.0002333 0.0000606 0.0004069 0.0006378 -0.0013962 -0.0000617 0.0000602 -0.0000120 0.0000290 -0.0000223 0.0002154 0.0023904 -0.0030125 -0.0000100 0.0002419 0.0000284 0.0002556 -0.0002077 0.0003202 -0.0000248 0.0000658 -0.0000331 0.0001041 -0.0001600 0.0004800 0.0000153 0.0003439 -0.0000400 0.0001906 0.0000484 0.0002520 0.0001774 0.0000927 -0.0000053 0.0001794 -0.0000167 0.0002444 -0.0000092 0.0001891 -0.0019632 0.0013207 0.0002271 -0.0000680 -0.0000127 0.0001709 0.0000035 0.0000670 -0.0000540 0.0000330 -0.0001387 0.0001871 0.0000035 0.0001052 0.0000676 0.0001441 -0.0006303 0.0002516 0.0000493 0.0002283 0.0008418 -0.0008444 0.0001186 0.0001509 -0.0000173 0.0001723 0.0000610 0.0000012 0.0002479 -0.0003235 0.0000037 0.0001199 0.0000531 0.0001074 -0.0065541 0.0056875 0.0023471 -0.0028970 0.0000774 -0.0000288 0.0000221 0.0000813 -0.0000046 0.0000116 -0.0001162 0.0004103 0.0000142 0.0000752 0.0000199 0.0000522 0.0001093 0.0000852 0.0003125 -0.0003731 0.0000338 0.0002019 0.0000273 0.0001524 0.0000378 0.0003060 -0.0000236 0.0006145 0.0000182 0.0002146 0.0000361 0.0001665 0.0001046 -0.0000639 -0.0000451 -0.0000640 -0.0000564 -0.0000980 0.0001184 0.0000842 0.0000594 0.0000082
-0.0000198 0.0002528 -0.0001832 0.0005385 -0.0006337 0.0027513 -0.0000277 0.0002697 -0.0000070 0.0001781 -0.0000215 0.0002290 -0.0008719 0.0006308 0.0000023 0.0000659 -0.0000326 0.0001783 0.0000317 0.0001521 -0.0000571 0.0001828 -0.0003965 0.0004101 -0.0000194 0.0002030 0.0000115 0.0002308 -0.0007904 0.0006971 -0.0000648 0.0003450 -0.0006587 0.0006419 -0.0000349 0.0003013 0.0000052 0.0001383 0.0000000 0.0000924 -0.0005521 0.0005459 0.0000461 0.0001633 0.0001065 0.0001272 0.0008328 -0.0006519 0.0004835 -0.0007187 -0.0000686 0.0002269 -0.0000252 0.0000146 -0.0000093 0.0001557 -0.0001519 0.0006428 0.0000770 0.0002280 0.0000068 0.0001900 0.0000229 0.0003028 -0.0014135 0.0022883 -0.0000383 0.0000117 0.0000059 -0.0000466 -0.0000457 0.0001708 0.0039767 -0.0033460 -0.0000718 0.0002653 0.0000238 0.0002026 -0.0001393 0.0001196 -0.0000281 -0.0000028 -0.0000353 0.0000641 -0.0003436 0.0004992 -0.0000191 0.0003197 -0.0000071 0.0000730 -0.0000545 0.0001787 0.0000084 -0.0001168 -0.0000441 0.0001021 -0.0000113 0.0001154 0.0000483 0.0000516 -0.0005605 0.0003184 0.0001844 -0.0000617 -0.0000008 0.0000548 0.0000005 -0.0000104 -0.0000651 -0.0000775 -0.0002836 0.0001431 -0.0000172 0.0000077 0.0000648 -0.0000088 0.0003339 -0.0007024 0.0000497 0.0001386 0.0005064 -0.0006033 0.0000586 0.0000629 -0.0000002 0.0000337 0.0000441 -0.0001157 0.0002887 -0.0007623 0.0000046 0.0000459 -0.0000099 0.0000967 -0.0044605 0.0042091 -0.0009689 -0.0000620 0.0000667 -0.0001172 0.0000285 -0.0000248 -0.0000035 -0.0001042 -0.0001084 0.0002902 0.0000223 -0.0000337 0.0000193 -0.0000310 0.0000398 0.0000205 -0.0004596 -0.0000162 0.0000428 0.0000485 0.0000090 0.0000460 0.0000433 0.0001776 0.0005972 -0.0005773 0.0000359 0.0000678 0.0000615 0.0000433 -0.0000280 -0.0001638 -0.0000543 -0.0001816 -0.0000531 -0.0001837 -0.0001344 0.0001162 0.0000296 -0.0000758
0.0000347 0.0000661 -0.0002035 0.0003693 0.0003628 0.0012291 -0.0000198 0.0000808 -0.0000068 0.0000409 -0.0000383 0.0001382 -0.0008338 0.0000071 -0.0001454 0.0002116 -0.0000988 0.0001083 0.0000422 0.0000381 -0.0000254 0.0000382 -0.0003056 0.0004260 -0.0000171 0.0000456 0.0000543 0.0000327 -0.0000936 -0.0000124 -0.0000180 0.0001049 -0.0003299 0.0009093 -0.0000567 0.0001704 0.0000052 -0.0000048 0.0000159 -0.0000780 -0.0002903 0.0003451 0.0000466 0.0000089 0.0000944 0.0000294 0.0010166 -0.0015560 0.0017267 -0.0014254 -0.0000553 0.0000219 -0.0000246 -0.0001043 -0.0000447 0.0000503 0.0011239 -0.0006466 0.0000196 0.0000715 0.0000188 0.0000661 0.0000639 0.0000695 -0.0002597 0.0005778 -0.0000200 -0.0001482 -0.0000075 -0.0001673 -0.0000478 0.0000485 0.0006534 -0.0011308 -0.0000410 0.0001293 0.0000231 0.0000706 -0.0001375 -0.0000077 -0.0000341 -0.0001061 -0.0000271 -0.0000240 -0.0001492 0.0001938 -0.0000170 0.0001791 0.0000098 -0.0000851 -0.0000713 0.0000122 -0.0002801 0.0000323 -0.0000503 0.0000059 0.0000211 -0.0000588 0.0000294 -0.0000770 0.0005245 0.0000352 0.0003922 -0.0001563 -0.0000018 -0.0000019 0.0000007 -0.0000678 -0.0000794 -0.0001325 -0.0001609 -0.0001157 -0.0000147 -0.0000643 0.0000380 -0.0000724 0.0000105 -0.0001879 0.0000186 0.0001376 -0.0009462 0.0008772 0.0000348 0.0000428 0.0000087 -0.0000052 0.0000075 -0.0000777 0.0001366 -0.0006470 0.0000300 0.0000501 0.0000058 0.0000806 -0.0006516 0.0002100 -0.0033904 0.0030589 0.0000517 0.0000077 0.0000305 0.0000243 -0.0000048 -0.0000072 -0.0000555 0.0002587 0.0000214 0.0000615 0.0000170 0.0000564 0.0000035 0.0001305 0.0004292 -0.0003060 0.0000417 0.0001901 -0.0000228 0.0001697 0.0000297 0.0003799 -0.0007227 0.0006581 0.0000107 0.0001925 0.0000870 0.0000764 -0.0000216 0.0000293 -0.0000526 -0.0000330 -0.0000395 -0.0000225 -0.0000224 0.0001186 0.0000107 0.0000131
0.0000069 0.0002146 -0.0000684 0.0004349 0.0028060 -0.0007035 -0.0000028 0.0001673 -0.0000466 0.0001887 -0.0000071 0.0002196 0.0002151 -0.0003499 -0.0005306 0.0008382 -0.0000999 0.0002615 0.0000319 0.0001143 -0.0000105 0.0001493 0.0000077 0.0005053 -0.0000006 0.0001137 0.0000330 0.0001501 0.0003549 0.0000845 -0.0000152 0.0002232 0.0001055 0.0004685 -0.0000401 0.0002162 -0.0000017 0.0000760 0.0000132 0.0000082 0.0008188 -0.0004248 0.0000328 0.0001044 0.0000362 0.0001540 0.0002075 -0.0010057 0.0005003 -0.0005117 -0.0000568 0.0000845 -0.0000255 -0.0000493 0.0000078 -0.0000171 0.0001265 0.0000827 0.0000467 0.0001414 0.0000229 0.0001058 0.0000625 0.0001572 0.0011782 -0.0020062 -0.0000446 -0.0001246 -0.0000128 -0.0001956 -0.0000672 0.0000896 -0.0038726 0.0017629 -0.0000367 0.0001104 0.0000174 0.0000700 -0.0002416 0.0002493 -0.0000368 -0.0001185 -0.0000281 0.0000011 -0.0001339 0.0003113 0.0000272 0.0001090 0.0000157 -0.0001146 -0.0000431 -0.0000496 -0.0006579 0.0004565 -0.0000538 -0.0000438 -0.0000091 -0.0000888 -0.0000567 -0.0001134 0.0005898 0.0001953 0.0004008 -0.0002536 -0.0000110 -0.0000358 0.0000011 -0.0000810 -0.0000801 -0.0001808 -0.0000615 -0.0001674 -0.0000148 -0.0001085 0.0000029 -0.0001146 -0.0006265 0.0000137 0.0000163 0.0001041 -0.0011315 0.0013045 0.0000536 -0.0000343 0.0000016 -0.0000356 0.0000193 -0.0001256 0.0001250 -0.0005686 0.0000209 0.0000203 0.0000057 0.0000451 -0.0045168 0.0033725 -0.0014304 0.0008654 0.0000398 -0.0000302 0.0000255 0.0000008 -0.0000032 -0.0000599 -0.0000447 0.0001262 0.0000271 -0.0000045 0.0000086 0.0000264 -0.0000010 0.0000731 0.0000595 -0.0001344 0.0000309 0.0001637 -0.0000181 0.0001148 0.0000430 0.0003605 -0.0002993 0.0010057 0.0000345 0.0001247 0.0000912 0.0000400 -0.0002320 0.0001867 -0.0000622 -0.0000641 -0.0000315 -0.0000288 0.0001770 -0.0000377 -0.0000109 0.0000151
-0.0000458 0.0001214 0.0000161 0.0002215 0.0038576 -0.0004465 -0.0000124 0.0001218 -0.0000520 0.0001567 0.0000131 0.0001229 0.0011194 -0.0014143 -0.0000332 0.0003276 -0.0000032 0.0001553 0.0000197 0.0000892 -0.0000296 0.0001326 0.0003096 0.0001474 0.0000021 0.0000460 0.0000337 0.0000592 0.0002375 0.0001484 -0.0000798 0.0002226 0.0005948 0.0001202 0.0000010 0.0000541 -0.0000094 0.0000121 -0.0000336 -0.0000362 0.0004403 -0.0004810 0.0000114 0.0000443 0.0000197 0.0001068 0.0010632 -0.0008557 0.0002151 0.0004717 0.0000024 -0.0000721 -0.0000136 -0.0001195 -0.0000238 -0.0001005 -0.0001225 0.0001435 0.0000432 0.0000619 0.0000180 0.0000516 0.0000428 0.0001060 0.0010900 -0.0009712 -0.0000457 -0.0001888 -0.0000303 -0.0002607 -0.0000392 -0.0000062 -0.0025712 0.0010290 -0.0000285 0.0000171 0.0000024 0.0000130 -0.0001244 -0.0000197 -0.0000433 -0.0001795 -0.0000290 -0.0000295 -0.0001240 0.0003626 0.0000451 0.0000137 0.0000307 -0.0002047 -0.0000047 -0.0002382 -0.0002668 -0.0000677 -0.0000156 -0.0001787 -0.0000487 -0.0001825 -0.0000766 -0.0001688 0.0004479 -0.0000708 0.0000154 -0.0001841 -0.0000073 -0.0001493 0.0000013 -0.0001452 -0.0000736 -0.0002763 -0.0001181 -0.0000636 -0.0000102 -0.0002585 -0.0000327 -0.0002637 -0.0003051 -0.0005044 0.0000398 -0.0000078 -0.0001481 0.0001901 0.0000483 -0.0001824 -0.0000069 -0.0001659 0.0000530 -0.0003077 0.0001117 -0.0007486 0.0000137 -0.0000438 -0.0000079 0.0000337 -0.0067098 0.0055687 -0.0045371 0.0030473 0.0000397 -0.0001682 0.0000203 -0.0000719 -0.0000060 -0.0001671 -0.0000521 0.0000358 0.0000690 -0.0001633 0.0000063 -0.0000580 -0.0000196 -0.0000124 -0.0009615 0.0005812 -0.0000602 0.0001035 -0.0000254 0.0000158 0.0000402 0.0002659 -0.0001263 0.0005914 0.0000415 0.0000055 0.0000514 -0.0000225 0.0002663 -0.0002291 -0.0000670 -0.0001804 -0.0000223 -0.0000960 -0.0000323 0.0000659 0.0000021 -0.0000754
-0.0000052 -0.0001167 -0.0000109 -0.0001097 0.0035048 -0.0008145 -0.0000039 -0.0000626 -0.0000274 0.0000017 0.0000185 -0.0000109 0.0004819 -0.0008805 -0.0001663 0.0000527 0.0000381 -0.0000346 0.0000148 -0.0000006 -0.0000645 0.0000726 0.0001606 0.0000078 -0.0000098 -0.0000865 0.0000307 -0.0000891 0.0001940 -0.0005059 0.0000033 -0.0000021 0.0013600 -0.0008784 0.0000202 -0.0000551 -0.0000137 -0.0000774 -0.0000703 -0.0000903 0.0000231 -0.0001030 0.0000244 -0.0000572 0.0000687 -0.0000075 0.0011128 -0.0011443 0.0023251 -0.0017478 0.0000907 -0.0001661 -0.0000136 -0.0001900 -0.0000139 -0.0001314 -0.0001448 0.0011150 0.0000501 -0.0000392 0.0000323 0.0000287 0.0000481 0.0000894 0.0003127 -0.0003474 -0.0000670 -0.0002042 -0.0000498 -0.0002558 -0.0000498 -0.0000130 -0.0028027 0.0020403 -0.0000093 0.0000291 0.0000103 0.0000681 -0.0000176 -0.0003216 -0.0000550 -0.0001159 -0.0000311 0.0000057 0.0001014 0.0002030 0.0000343 0.0001678 0.0000218 -0.0001810 0.0000852 -0.0002635 -0.0005043 0.0003242 0.0000226 -0.0001600 -0.0000480 -0.0001753 -0.0000129 -0.0000905 0.0002967 -0.0006916 -0.0003991 0.0001088 0.0000057 -0.0000510 0.0000036 -0.0000814 -0.0000722 -0.0001864 -0.0001625 0.0001725 -0.0000406 -0.0001810 -0.0000315 -0.0002485 0.0000337 -0.0004483 0.0000394 0.0000878 0.0008456 -0.0005716 0.0000451 -0.0001275 -0.0000181 -0.0000948 0.0000629 -0.0002386 0.0000657 -0.0004542 0.0000194 0.0000581 0.0000702 0.0000816 -0.0085585 0.0079651 -0.0052678 0.0032917 0.0000431 0.0000062 0.0000155 0.0000725 -0.0000013 -0.0000110 -0.0000110 0.0003488 0.0000602 0.0000125 0.0000083 0.0000719 -0.0000341 0.0001853 -0.0003369 0.0007341 -0.0000755 0.0003009 -0.0000206 0.0001447 0.0000355 0.0004489 -0.0002431 0.0003594 -0.0000183 0.0001836 0.0000118 0.0001301 0.0003446 0.0000568 -0.0000478 -0.0000948 -0.0000086 0.0000055 -0.0001831 0.0003871 0.0000506 -0.0000128
-0.0000007 -0.0000205 0.0002577 -0.0001938 0.0006501 -0.0000575 -0.0000053 -0.0000458 -0.0000163 0.0000390 -0.0000010 0.0000454 0.0000588 -0.0001977 -0.0013878 0.0010043 -0.0000083 -0.0000457 0.0000220 0.0000140 -0.0000562 0.0000714 0.0001670 -0.0000234 -0.0000161 -0.0001184 0.0000060 -0.0001112 0.0004041 -0.0009021 0.0000474 -0.0001077 0.0010781 -0.0012568 0.0000245 -0.0001030 -0.0000082 -0.0001121 0.0000225 -0.0001748 0.0003533 -0.0001867 0.0000228 -0.0000651 0.0000728 -0.0000457 0.0001238 -0.0005083 0.0013287 -0.0017123 0.0001421 -0.0002227 -0.0000277 -0.0001940 0.0000046 -0.0001551 0.0008529 -0.0007715 0.0001160 -0.0000445 0.0000258 0.0000002 0.0000330 0.0000976 0.0003434 -0.0012563 -0.0000340 -0.0002410 -0.0000289 -0.0002734 -0.0000869 -0.0000001 -0.0028671 0.0026393 -0.0000337 0.0000310 0.0000111 0.0000401 -0.0001792 -0.0002182 -0.0000603 -0.0001254 -0.0000248 -0.0000087 -0.0000936 0.0002051 0.0000029 0.0001716 0.0000080 -0.0001926 0.0000438 -0.0002700 -0.0004739 0.0004047 -0.0000256 -0.0001252 -0.0000473 -0.0002185 0.0000270 -0.0001317 -0.0006527 -0.0012006 0.0001772 -0.0003745 0.0000182 -0.0000817 0.0000071 -0.0000938 -0.0000796 -0.0002076 -0.0002038 0.0001964 -0.0000402 -0.0002179 -0.0000590 -0.0002823 0.0004235 -0.0004976 0.0000188 0.0000618 0.0010487 -0.0005049 0.0000319 -0.0001554 -0.0000166 -0.0001317 0.0000463 -0.0002645 -0.0000887 -0.0003972 0.0000134 0.0000102 0.0000960 0.0000157 0.0012303 0.0016068 -0.0017959 0.0009760 0.0000675 -0.0000432 0.0000304 0.0000288 -0.0000021 -0.0000602 0.0002242 0.0000938 -0.0000041 0.0000141 0.0000201 0.0000225 0.0000157 0.0001183 0.0001598 0.0004978 -0.0000260 0.0002618 -0.0000072 0.0000942 0.0000577 0.0003723 0.0003957 0.0004099 -0.0000571 0.0001595 0.0000056 0.0001041 0.0004204 -0.0001645 -0.0000486 -0.0001363 -0.0000123 -0.0000099 -0.0000272 0.0002256 0.0000332 -0.0000188
-0.0000356 -0.0001360 0.0003917 -0.0003810 -0.0003665 -0.0001982 -0.0000348 -0.0001190 -0.0000238 -0.0000398 -0.0000380 0.0000054 -0.0001643 0.0000237 -0.0005199 0.0002738 -0.0000133 -0.0000974 0.0000422 -0.0000353 -0.0000081 -0.0000310 0.0004326 -0.0002452 -0.0000148 -0.0002254 0.0000038 -0.0002501 0.0004213 -0.0008350 0.0000024 -0.0001982 0.0011515 -0.0012497 0.0000757 -0.0003077 -0.0000172 -0.0001971 0.0000515 -0.0003086 -0.0003073 0.0004037 0.0000043 -0.0001622 0.0000568 -0.0001288 -0.0007306 0.0005908 -0.0006971 0.0004906 0.0001004 -0.0002997 -0.0000217 -0.0002676 -0.0000694 -0.0001763 0.0017504 -0.0018877 0.0000849 -0.0001092 0.0000172 -0.0000794 0.0000794 -0.0000408 0.0008934 -0.0026467 -0.0000407 -0.0002846 -0.0000151 -0.0003358 -0.0000716 -0.0000800 -0.0011387 0.0002580 -0.0000087 -0.0000822 0.0000077 -0.0000399 -0.0000913 -0.0002193 -0.0000548 -0.0002057 -0.0000233 -0.0000497 -0.0000822 0.0000036 -0.0000085 0.0000589 -0.0000011 -0.0002574 -0.0000660 -0.0003220 -0.0003001 0.0000509 -0.0000692 -0.0001814 -0.0000530 -0.0003087 -0.0000245 -0.0002182 -0.0012531 0.0000327 0.0008962 -0.0011767 0.0000151 -0.0001945 0.0000127 -0.0001688 -0.0000831 -0.0002946 -0.0002451 0.0000838 -0.0000271 -0.0003480 -0.0000623 -0.0004130 -0.0000864 -0.0002740 0.0000284 -0.0000712 0.0009462 -0.0002356 0.0000353 -0.0002791 -0.0000045 -0.0002530 0.0000554 -0.0003714 -0.0002361 -0.0002603 0.0000300 -0.0001099 0.0000689 -0.0000692 0.0015621 0.0003530 -0.0003441 0.0000444 0.0000624 -0.0001452 0.0000302 -0.0000656 -0.0000349 -0.0001535 0.0003193 -0.0002050 -0.0000288 -0.0000767 0.0000250 -0.0000735 0.0000216 0.0000074 -0.0002051 0.0001094 -0.0000247 0.0001748 -0.0000130 0.0000128 0.0000498 0.0002764 -0.0002318 0.0007376 -0.0000648 0.0001027 -0.0000103 0.0000492 0.0001404 -0.0001150 -0.0000593 -0.0001307 -0.0000275 0.0000231 0.0001210 0.0000034 0.0000347 -0.0000471
-0.0000463 -0.0002319 0.0002221 -0.0001927 -0.0050907 0.0046299 -0.0000489 -0.0001010 -0.0000203 -0.0000606 -0.0000396 0.0000006 0.0001229 -0.0002146 0.0001516 -0.0002693 0.0000208 -0.0000599 0.0000404 -0.0000078 0.0000160 0.0000159 -0.0000124 0.0002706 -0.0000132 -0.0001920 -0.0000246 -0.0001757 -0.0000933 -0.0000492 0.0000688 -0.0001290 0.0010185 -0.0008278 0.0000219 -0.0001620 -0.0000027 -0.0001411 -0.0000130 -0.0001692 -0.0008618 0.0009517 0.0000113 -0.0001220 0.0000328 -0.0000556 -0.0001660 -0.0001499 -0.0023538 0.0025946 0.0000238 -0.0001077 -0.0000376 -0.0001891 -0.0000300 -0.0000718 -0.0002544 0.0009193 0.0000306 0.0000081 0.0000248 0.0000123 0.0000245 0.0001493 0.0003725 -0.0021626 -0.0000701 -0.0001539 -0.0000263 -0.0002289 -0.0000964 -0.0000314 -0.0038099 0.0015576 -0.0000032 0.0000783 0.0000110 0.0001081 0.0000376 -0.0001877 -0.0000511 -0.0000814 -0.0000505 0.0000121 0.0000597 0.0002634 -0.0000203 0.0002465 0.0000038 -0.0001535 -0.0000387 -0.0001768 0.0001651 -0.0002307 -0.0000665 -0.0000878 -0.0000441 -0.0001768 0.0000147 -0.0001205 -0.0006257 0.0012052 0.0001348 -0.0003439 -0.0000059 -0.0000063 0.0000103 -0.0000473 -0.0000777 -0.0001353 -0.0002617 0.0001722 -0.0000474 -0.0001962 -0.0000406 -0.0002610 -0.0004568 0.0000616 0.0000289 0.0000643 0.0011341 -0.0005431 0.0000308 -0.0001334 -0.0000028 -0.0001184 0.0000506 -0.0002161 -0.0003511 0.0000935 0.0000153 0.0000192 0.0000074 0.0000438 -0.0059281 0.0056444 -0.0010707 0.0001259 0.0000254 0.0000221 0.0000194 0.0000372 -0.0000361 -0.0000666 -0.0000350 0.0001487 0.0000009 0.0000047 0.0000209 -0.0000028 -0.0000077 0.0001076 -0.0004149 0.0003873 -0.0000141 0.0001445 -0.0000244 0.0000347 0.0000412 0.0002608 -0.0003665 0.0000522 -0.0000255 0.0000862 0.0000298 0.0000838 -0.0003671 0.0005297 -0.0000616 -0.0001276 -0.0000291 0.0000072 -0.0001493 0.0002810 0.0000716 -0.0000356
-0.0000034 -0.0001691 -0.0003809 0.0003026 -0.0038434 0.0052487 -0.0000411 -0.0000888 -0.0000036 -0.0000801 -0.0000151 -0.0000138 -0.0002339 -0.0000860 0.0003384 -0.0003888 0.0000027 -0.0000676 0.0000389 0.0000071 -0.0000006 0.0000470 -0.0005152 0.0007422 0.0000016 -0.0002099 -0.0000078 -0.0001889 -0.0004656 0.0003123 0.0000389 -0.0001132 0.0008964 -0.0004207 -0.0000119 -0.0001530 0.0000129 -0.0001693 -0.0000179 -0.0001886 0.0000948 0.0001071 0.0000212 -0.0001575 -0.0000120 -0.0000651 0.0004105 -0.0009578 -0.0036837 0.0032753 0.0000967 -0.0002253 -0.0000462 -0.0001920 -0.0000457 -0.0000517 -0.0015883 0.0007044 0.0000322 -0.0000977 0.0000176 -0.0000015 0.0000055 0.0001178 0.0012931 -0.0014713 -0.0000357 -0.0001894 -0.0000303 -0.0001358 -0.0001128 -0.0001660 -0.0033670 0.0010138 -0.0000877 0.0001602 0.0000133 0.0000875 -0.0003496 0.0002628 -0.0000527 -0.0000601 -0.0000841 -0.0000869 0.0000037 0.0001357 -0.0000194 0.0001876 0.0000199 -0.0001735 -0.0000126 -0.0002119 0.0004211 -0.0005836 -0.0000323 -0.0001415 -0.0000283 -0.0001861 0.0000290 -0.0001153 -0.0002377 0.0010474 -0.0006148 0.0003799 -0.0000072 -0.0000368 0.0000099 -0.0000554 -0.0000771 -0.0001419 -0.0001034 -0.0000884 -0.0000564 -0.0002252 -0.0000445 -0.0002791 -0.0000560 -0.0002366 0.0000012 0.0000259 0.0010604 -0.0004687 0.0000164 -0.0001522 0.0000007 -0.0001716 0.0000144 -0.0002356 -0.0002017 -0.0002755 -0.0000045 -0.0000167 0.0000213 0.0000313 -0.0036186 0.0040633 -0.0021338 0.0011344 0.0000144 -0.0000359 0.0000158 -0.0000075 -0.0000187 -0.0001527 -0.0001649 0.0000869 0.0000104 -0.0000866 0.0000109 -0.0000702 -0.0000128 0.0000277 -0.0001586 0.0004173 -0.0000781 0.0001202 -0.0000166 -0.0000453 0.0000373 0.0001627 -0.0006569 0.0001917 0.0000442 -0.0000477 0.0000495 0.0000291 -0.0002980 0.0005775 -0.0000581 -0.0001980 -0.0000156 -0.0000750 -0.0003468 0.0003976 0.0000797 -0.0000822
0.0000608 -0.0002887 -0.0000956 -0.0002542 -0.0001802 0.0015921 -0.0000374 -0.0002242 -0.0000223 -0.0001642 -0.0000312 -0.0000848 -0.0002094 -0.0004458 0.0006427 -0.0006752 -0.0000532 -0.0001297 0.0000484 -0.0000667 -0.0000271 -0.0000099 -0.0003900 0.0004389 0.0000092 -0.0003514 0.0000362 -0.0003685 -0.0007319 0.0005412 0.0000017 -0.0002756 0.0006778 -0.0005012 0.0000074 -0.0003154 -0.0000044 -0.0002576 -0.0000501 -0.0003253 0.0002161 -0.0002186 -0.0000006 -0.0002503 0.0000575 -0.0002545 0.0001550 -0.0004604 -0.0013108 0.0014481 0.0001367 -0.0004225 -0.0000401 -0.0002924 -0.0000552 -0.0001073 -0.0000888 -0.0010835 0.0000769 -0.0002703 0.0000043 -0.0000965 -0.0000088 -0.0000409 0.0008194 -0.0005901 -0.0000031 -0.0002585 -0.0000266 -0.0001382 -0.0001219 -0.0002892 -0.0004375 -0.0022328 -0.0000483 0.0000009 0.0000120 -0.0000111 -0.0004071 0.0002179 -0.0000503 -0.0001191 -0.0000935 -0.0002150 -0.0004636 0.0001407 -0.0000200 0.0000438 0.0000349 -0.0002531 -0.0000266 -0.0003397 -0.0001299 -0.0001552 -0.0000285 -0.0002312 -0.0000344 -0.0002874 -0.0000066 -0.0001460 0.0007018 -0.0002336 -0.0004970 0.0000205 0.0000066 -0.0001612 0.0000057 -0.0001274 -0.0000691 -0.0002562 -0.0000982 -0.0001450 -0.0000214 -0.0003736 -0.0000439 -0.0004284 -0.0003934 -0.0001068 0.0000367 -0.0001232 0.0001221 0.0002727 0.0000220 -0.0002916 0.0000124 -0.0002887 0.0000131 -0.0003096 -0.0001288 -0.0004210 -0.0000032 -0.0001008 -0.0000325 0.0000517 -0.0030272 0.0031000 -0.0012868 0.0011319 0.0000274 -0.0000758 0.0000231 -0.0000495 -0.0000256 -0.0001720 -0.0000312 -0.0001342 -0.0000154 -0.0000805 0.0000023 -0.0000990 -0.0000391 0.0000325 0.0001522 0.0000732 -0.0000344 0.0002215 -0.0000115 -0.0000047 0.0000259 0.0002578 -0.0012376 0.0008940 0.0000117 0.0000493 0.0000255 0.0000733 0.0000913 0.0003268 -0.0000440 -0.0000706 -0.0000075 0.0000524 -0.0001723 0.0004036 0.0000459 -0.0000049
0.0000639 -0.0002869 0.0003643 -0.0005653 0.0009003 -0.0009369 -0.0000623 -0.0001119 -0.0000331 -0.0000519 -0.0000098 -0.0000281 0.0002364 -0.0007641 0.0001494 -0.0002119 -0.0000930 -0.0000104 0.0000423 -0.0000044 -0.0000257 0.0000870 -0.0004811 0.0006588 0.0000047 -0.0002675 0.0000102 -0.0002777 -0.0010719 0.0007732 0.0000212 -0.0001601 -0.0006774 0.0001816 0.0000222 -0.0001761 -0.0000037 -0.0001638 -0.0000343 -0.0001861 0.0003796 -0.0005135 -0.0000099 -0.0001231 0.0000768 -0.0001446 -0.0002821 0.0000438 0.0017889 -0.0013509 0.0000784 -0.0002160 -0.0000313 -0.0001948 0.0000007 0.0000148 -0.0006590 -0.0010475 0.0000304 -0.0000432 0.0000028 0.0000193 -0.0000380 0.0001694 -0.0004087 0.0004509 0.0000406 -0.0001428 -0.0000150 -0.0000247 -0.0001542 -0.0000899 0.0012662 -0.0015470 0.0000321 0.0001189 0.0000186 0.0001573 -0.0000161 0.0001311 -0.0000575 0.0000456 -0.0000907 -0.0000889 -0.0004780 0.0006220 -0.0000350 0.0002971 0.0000329 -0.0001114 -0.0000556 -0.0001298 -0.0000159 0.0000360 -0.0000118 -0.0000905 -0.0000505 -0.0001278 -0.0000526 0.0000268 0.0010436 -0.0018445 -0.0005037 0.0002266 0.0000076 0.0000309 0.0000054 0.0000018 -0.0000653 -0.0000984 -0.0002896 0.0003554 -0.0000098 -0.0002340 -0.0000475 -0.0002778 -0.0002996 0.0001688 0.0000441 0.0000279 0.0000791 -0.0000256 0.0000712 -0.0001824 0.0000031 -0.0001466 0.0000114 -0.0001507 -0.0003246 0.0000140 0.0000025 0.0000015 -0.0000211 0.0001035 0.0000001 -0.0004963 -0.0018336 0.0010121 0.0000187 -0.0000140 0.0000355 0.0000104 -0.0000503 -0.0000995 0.0000274 0.0000769 0.0000090 -0.0000080 0.0000067 -0.0000587 -0.0000384 0.0000744 -0.0002382 0.0001337 0.0000649 0.0001453 -0.0000343 0.0000270 0.0000136 0.0002388 -0.0003061 0.0005220 0.0000711 0.0000057 0.0000500 0.0001136 0.0000438 0.0002424 -0.0000485 -0.0000505 -0.0000056 0.0000686 0.0000626 0.0002729 0.0000245 0.0000612
-0.0000091 -0.0001793 -0.0001776 -0.0000192 0.0050223 -0.0040202 -0.0000640 -0.0000640 -0.0000298 -0.0000357 0.0000638 -0.0000524 -0.0001689 -0.0002215 0.0002383 -0.0005260 -0.0000999 0.0000160 0.0000423 0.0000221 -0.0000100 0.0000897 -0.0002559 0.0006036 0.0000047 -0.0002295 -0.0000262 -0.0002135 -0.0011466 0.0002297 -0.0000121 -0.0000934 0.0002854 -0.0000015 0.0000072 -0.0001792 0.0000059 -0.0001802 0.0000466 -0.0002339 0.0007805 -0.0007363 0.0000099 -0.0001490 0.0000051 -0.0000766 -0.0008980 0.0008648 0.0017105 -0.0021941 -0.0000412 -0.0001337 -0.0000140 -0.0002052 -0.0000242 0.0000015 -0.0010692 -0.0004314 -0.0000415 -0.0000056 0.0000010 0.0000030 -0.0000431 0.0001710 0.0005120 -0.0007499 -0.0000451 -0.0000991 -0.0000175 -0.0000062 -0.0000999 -0.0000542 -0.0002018 0.0020601 0.0000365 0.0001018 0.0000231 0.0001149 0.0001330 -0.0001172 -0.0000590 0.0000585 -0.0000730 -0.0000452 0.0000607 0.0002374 -0.0000309 0.0002361 0.0000220 -0.0001076 -0.0000599 -0.0001075 0.0004290 -0.0003360 -0.0000065 -0.0000801 -0.0000606 -0.0001203 -0.0000756 -0.0000150 -0.0007372 -0.0008207 -0.0003147 0.0001829 0.0000178 -0.0000001 0.0000122 -0.0000041 -0.0000706 -0.0000878 -0.0001874 0.0002066 -0.0000296 -0.0002369 -0.0000380 -0.0003192 -0.0004426 0.0003983 -0.0000063 0.0000199 -0.0000452 0.0001288 0.0001119 -0.0002226 -0.0000009 -0.0001861 0.0000118 -0.0002061 0.0000124 -0.0004313 0.0000093 -0.0000556 0.0000615 0.0000394 0.0051858 -0.0045814 -0.0008900 0.0001291 0.0000057 -0.0000994 0.0000289 -0.0000359 -0.0000552 -0.0001824 0.0001604 -0.0001276 0.0000239 -0.0001182 0.0000002 -0.0001306 0.0000692 -0.0000958 -0.0007472 0.0000391 0.0000850 0.0000168 -0.0000394 -0.0000427 -0.0000112 0.0001474 0.0005474 -0.0008404 0.0000814 -0.0000981 0.0000632 0.0000575 0.0000264 0.0000138 -0.0000595 -0.0001324 -0.0000103 -0.0000088 0.0000891 -0.0000259 0.0000366 0.0000183
-0.0000773 -0.0001653 -0.0003658 0.0000556 0.0052339 -0.0039491 -0.0000191 -0.0002258 -0.0000185 -0.0001593 0.0000287 -0.0001306 -0.0008010 0.0003841 0.0001497 -0.0007203 -0.0000399 -0.0001111 0.0000429 -0.0000305 0.0000052 -0.0000014 -0.0000442 0.0002110 -0.0000062 -0.0003239 0.0000286 -0.0003460 -0.0004534 -0.0005431 -0.0000054 -0.0002744 -0.0001998 0.0003863 0.0000631 -0.0003921 0.0000063 -0.0002722 0.0000671 -0.0003698 0.0002225 -0.0003978 0.0000210 -0.0002606 -0.0000039 -0.0001724 0.0006405 -0.0008274 0.0000641 -0.0005013 -0.0000667 -0.0002282 -0.0000287 -0.0002747 -0.0000126 -0.0000684 -0.0008490 0.0007048 -0.0000005 -0.0001360 -0.0000044 -0.0000737 -0.0001147 0.0000867 0.0014657 -0.0018143 -0.0001339 -0.0000857 -0.0000258 -0.0000289 -0.0001030 -0.0001440 0.0003199 0.0021980 0.0000939 -0.0000715 0.0000219 0.0000111 -0.0000879 -0.0002358 -0.0000479 -0.0000239 -0.0000602 -0.0001280 -0.0001071 0.0000712 -0.0000360 0.0000904 -0.0000019 -0.0001501 -0.0000452 -0.0002467 0.0004075 -0.0004998 0.0000100 -0.0001636 -0.0000583 -0.0002082 -0.0000802 -0.0000787 -0.0008265 -0.0000369 0.0001267 -0.0003384 0.0000119 -0.0000931 0.0000196 -0.0000717 -0.0000781 -0.0001599 -0.0001623 0.0000815 -0.0000065 -0.0003365 -0.0000237 -0.0004228 -0.0002244 0.0000439 -0.0000027 -0.0000798 -0.0007652 0.0010368 0.0000339 -0.0002219 0.0000047 -0.0002380 0.0000280 -0.0002551 0.0001453 -0.0006659 0.0000167 -0.0000950 0.0000165 0.0000369 0.0026910 -0.0006826 -0.0008315 0.0006391 -0.0000011 -0.0000143 0.0000252 -0.0000083 -0.0000408 -0.0001554 -0.0000575 0.0000105 0.0000252 -0.0001027 -0.0000037 -0.0000995 0.0000516 0.0000012 0.0000875 -0.0004654 0.0000873 0.0001490 -0.0000254 0.0000312 -0.0000398 0.0003153 -0.0001503 -0.0002493 -0.0000190 0.0000810 0.0000360 0.0001267 0.0002390 -0.0001707 -0.0000414 -0.0000041 -0.0000169 0.0001224 0.0002107 -0.0000969 0.0000375 0.0001061
0.0000274 -0.0001867 -0.0001153 0.0000077 -0.0009425 0.0007464 0.0000227 -0.0001444 -0.0000198 -0.0000445 0.0000024 -0.0000061 0.0000721 -0.0000597 0.0000559 -0.0003468 0.0000126 -0.0000224 0.0000370 0.0000566 0.0000205 0.0001231 -0.0001478 0.0003048 0.0000025 -0.0002101 0.0000371 -0.0002501 0.0001254 -0.0008714 -0.0000265 -0.0001045 -0.0002769 0.0001457 0.0001358 -0.0002729 0.0000240 -0.0001479 0.0000031 -0.0001413 -0.0002986 0.0001450 0.0000128 -0.0001057 -0.0000225 0.0000141 0.0016472 -0.0012634 0.0005236 -0.0008714 0.0000300 -0.0001260 -0.0000359 -0.0001246 -0.0000078 0.0001079 0.0000463 0.0002641 0.0001040 -0.0000263 0.0000055 0.0000759 -0.0000995 0.0002651 0.0012856 -0.0012236 -0.0000914 0.0000771 -0.0000000 0.0001039 -0.0001406 -0.0000468 0.0006517 0.0017852 0.0000604 0.0001636 0.0000284 0.0002111 -0.0003357 0.0002748 -0.0000414 0.0001366 -0.0000801 -0.0000447 0.0000661 0.0000818 -0.0000232 0.0003310 -0.0000296 0.0000444 -0.0000845 -0.0000091 0.0003831 -0.0003807 0.0000761 -0.0000553 -0.0000441 -0.0000374 -0.0001012 0.0001976 0.0013113 -0.0006859 0.0000577 -0.0000366 -0.0000144 0.0001411 0.0000162 0.0000743 -0.0000686 0.0000111 -0.0001792 0.0003377 0.0000166 -0.0001593 -0.0000257 -0.0002040 0.0001990 -0.0003162 0.0000502 0.0000570 -0.0003266 0.0006540 -0.0000089 -0.0000041 -0.0000018 -0.0000625 0.0000284 -0.0000765 -0.0003702 0.0000351 0.0000152 0.0000410 0.0000620 0.0000664 -0.0002526 0.0013509 -0.0022686 0.0018358 0.0000308 0.0000583 0.0000257 0.0000863 -0.0000449 -0.0000643 -0.0002765 0.0002205 0.0000166 0.0000135 -0.0000031 -0.0000379 -0.0000598 0.0001892 0.0002483 -0.0002538 -0.0000238 0.0002915 -0.0000336 0.0000591 -0.0000188 0.0003143 -0.0008744 0.0011297 -0.0000094 0.0001145 0.0000416 0.0001958 -0.0002513 0.0003005 -0.0000281 0.0000028 0.0000022 0.0001213 0.0000264 0.0002346 0.0000013 0.0001957
0.0001000 -0.0002061 0.0000267 0.0001155 0.0005269 -0.0004708 0.0000149 -0.0000727 -0.0000058 -0.0000013 0.0000246 0.0000598 0.0003930 -0.0002261 0.0001209 -0.0002586 0.0000316 0.0000092 0.0000383 0.0000980 0.0000261 0.0001686 -0.0000385 0.0003556 0.0000148 -0.0001422 -0.0000333 -0.0001309 0.0003436 -0.0008902 0.0000012 -0.0000665 -0.0003162 -0.0003845 0.0000662 -0.0001572 0.0000227 -0.0001050 0.0000103 -0.0000904 -0.0002760 0.0001993 -0.0000089 -0.0000537 0.0000102 0.0000096 0.0001909 0.0000485 0.0007199 0.0000239 -0.0000106 -0.0000353 -0.0000261 -0.0000978 0.0000185 0.0001114 0.0023375 -0.0015634 0.0000701 -0.0000161 0.0000171 0.0000711 -0.0000224 0.0002177 0.0001101 -0.0010216 -0.0000382 0.0000756 0.0000165 0.0001329 -0.0001430 -0.0000206 -0.0000567 0.0005802 -0.0000441 0.0002646 0.0000347 0.0001978 -0.0001780 0.0002269 -0.0000317 0.0001599 -0.0000842 -0.0000677 0.0002058 0.0001855 -0.0000137 0.0003066 -0.0000299 0.0000640 -0.0000415 0.0000085 0.0008503 -0.0004364 0.0000588 -0.0000038 -0.0000104 -0.0000359 -0.0000755 0.0002283 0.0011459 -0.0005756 -0.0001842 0.0003107 -0.0000054 0.0001382 0.0000136 0.0000986 -0.0000665 0.0000329 0.0001143 0.0000724 0.0000178 -0.0001189 -0.0000327 -0.0001790 0.0001610 -0.0004246 0.0000381 0.0000818 -0.0001438 0.0002003 0.0000076 0.0000036 0.0000026 -0.0000802 -0.0000063 -0.0000868 -0.0002641 -0.0000050 0.0000157 0.0000174 0.0000851 0.0000585 -0.0013102 -0.0008833 0.0016325 -0.0009244 0.0000384 -0.0000348 0.0000105 0.0000699 -0.0000554 -0.0000899 -0.0001468 -0.0000212 -0.0000021 -0.0000212 -0.0000057 -0.0000987 -0.0000217 0.0000798 0.0000105 -0.0000713 -0.0000589 0.0002196 -0.0000370 0.0000001 0.0000238 0.0002003 -0.0007499 0.0006504 -0.0000260 0.0000447 0.0000486 0.0001564 0.0000554 0.0000807 -0.0000371 -0.0000843 0.0000236 0.0000413 0.0000119 0.0001773 0.0000094 0.0001365
0.0000326 -0.0001657 -0.0002871 0.0003583 0.0036167 -0.0040940 0.0000265 -0.0001504 0.0000060 -0.0000841 0.0000378 0.0000235 -0.0001226 0.0002247 0.0004326 -0.0004406 0.0000391 -0.0000516 0.0000451 0.0000594 0.0000253 0.0001051 0.0000161 0.0001913 0.0000044 -0.0001893 -0.0000339 -0.0001664 -0.0008005 0.0003004 0.0000411 -0.0001908 -0.0007286 0.0000269 0.0000378 -0.0001924 0.0000112 -0.0001495 0.0000191 -0.0001504 -0.0004632 0.0004350 -0.0000173 -0.0001016 0.0000497 -0.0000744 0.0000816 -0.0009350 -0.0004153 0.0015372 -0.0000043 -0.0000996 -0.0000299 -0.0001488 0.0000444 0.0000327 0.0016884 -0.0018620 -0.0000378 -0.0000939 0.0000200 0.0000077 -0.0000191 0.0001216 -0.0009101 -0.0003010 -0.0000163 0.0000126 -0.0000045 0.0001254 -0.0001287 -0.0000773 0.0003992 -0.0012258 -0.0000530 0.0002075 0.0000281 0.0001153 -0.0001554 0.0001522 -0.0000372 0.0001011 -0.0000845 -0.0001309 0.0001054 0.0002317 -0.0000139 0.0001946 -0.0000401 0.0000007 -0.0000166 -0.0000646 0.0002531 0.0000739 0.0000441 -0.0000298 -0.0000117 -0.0000872 -0.0000286 0.0001244 -0.0016564 0.0014628 -0.0001684 0.0001540 0.0000021 0.0000497 0.0000189 0.0000526 -0.0000630 -0.0000320 0.0000402 0.0000913 0.0000301 -0.0001757 -0.0000634 -0.0002079 0.0002965 -0.0007660 -0.0000062 0.0000635 0.0001874 0.0001198 0.0000018 0.0000002 0.0000097 -0.0001078 -0.0000402 -0.0000762 0.0001190 -0.0002193 0.0000182 -0.0000008 -0.0000213 0.0001345 0.0045522 -0.0053291 0.0044207 -0.0030710 -0.0000076 0.0000575 0.0000055 0.0001151 -0.0000531 -0.0000329 -0.0003982 0.0005429 0.0000483 -0.0000279 -0.0000068 -0.0000523 0.0000778 0.0000631 -0.0001186 0.0003985 0.0000179 0.0002651 -0.0000101 0.0000794 0.0000352 0.0003763 -0.0003504 0.0004076 -0.0000152 0.0001515 0.0000651 0.0002030 0.0004691 -0.0001005 -0.0000445 0.0000509 0.0000137 0.0001986 0.0000032 0.0003406 0.0000289 0.0001809
-0.0000675 0.0001114 -0.0007323 0.0006127 0.0006830 -0.0009524 0.0000348 0.0000045 -0.0000083 0.0000605 0.0000247 0.0001908 0.0007969 -0.0004750 0.0002822 -0.0002453 0.0000146 0.0001377 0.0000483 0.0001555 -0.0000025 0.0002546 0.0001286 0.0002872 0.0000033 -0.0000307 0.0000265 -0.0000776 -0.0012910 0.0010571 0.0000476 -0.0000007 -0.0003110 0.0002062 0.0000338 0.0000587 0.0000096 0.0000115 -0.0000070 0.0000462 -0.0004652 0.0008900 0.0000035 0.0000478 0.0000362 0.0001211 0.0006861 -0.0008155 -0.0008463 0.0011798 0.0000296 0.0001117 -0.0000444 0.0000140 -0.0000741 0.0002926 0.0001308 0.0004832 -0.0000540 0.0001385 0.0000239 0.0001607 -0.0000562 0.0003709 -0.0000434 -0.0007283 -0.0000194 0.0001513 0.0000010 0.0002385 -0.0001106 0.0000797 0.0008667 -0.0013046 -0.0000227 0.0003855 0.0000216 0.0003136 0.0000709 0.0002073 -0.0000422 0.0002486 -0.0000819 0.0000315 0.0002748 0.0001716 -0.0000250 0.0004063 -0.0000226 0.0001485 -0.0000399 0.0001722 -0.0000481 0.0002862 0.0000520 0.0001277 -0.0000256 0.0001262 0.0000477 0.0002853 -0.0016619 0.0019769 -0.0002020 0.0004227 -0.0000208 0.0002737 0.0000156 0.0002033 -0.0000503 0.0001446 -0.0003211 0.0006631 0.0000203 0.0000352 -0.0000521 0.0000232 -0.0000678 -0.0000992 -0.0000201 0.0002828 0.0007605 -0.0001216 0.0000192 0.0002026 0.0000041 0.0000922 -0.0000378 0.0001389 -0.0000518 0.0000712 0.0000039 0.0001641 -0.0000376 0.0002522 0.0063898 -0.0046778 0.0030316 -0.0021259 -0.0000050 0.0002165 0.0000124 0.0002396 -0.0000472 0.0000748 -0.0004221 0.0007890 0.0000415 0.0001152 -0.0000098 0.0000527 0.0000472 0.0001993 -0.0004734 0.0008259 -0.0000436 0.0003966 -0.0000191 0.0001298 0.0000449 0.0003914 -0.0000704 -0.0001857 0.0000013 0.0002125 0.0000967 0.0002613 -0.0000495 0.0003039 -0.0000529 0.0000649 0.0000079 0.0001928 -0.0002803 0.0005308 0.0000225 0.0002292
-0.0000431 0.0001706 -0.0002753 0.0002366 -0.0028816 0.0022068 -0.0000047 0.0001412 0.0000030 0.0001254 -0.0000556 0.0003248 0.0011014 -0.0004014 -0.0004992 0.0004056 0.0000248 0.0001874 0.0000462 0.0002136 -0.0000415 0.0003438 -0.0001558 0.0006863 0.0000113 0.0000573 0.0000342 0.0000213 -0.0004692 0.0007357 0.0000425 0.0000646 0.0011621 -0.0003545 0.0000278 0.0001401 0.0000146 0.0000728 0.0000257 0.0000615 -0.0002970 0.0008040 0.0000100 0.0001008 -0.0000010 0.0001814 0.0003198 0.0000918 0.0008666 -0.0004481 -0.0000995 0.0002829 -0.0000304 0.0000574 -0.0000911 0.0003579 0.0000253 0.0014293 0.0000138 0.0002028 0.0000223 0.0001790 -0.0000722 0.0003784 -0.0006241 -0.0005506 -0.0000719 0.0002167 0.0000110 0.0002494 -0.0001474 0.0001993 0.0012898 -0.0000438 -0.0000159 0.0003737 0.0000120 0.0003229 0.0002125 -0.0000337 -0.0000435 0.0002566 -0.0000700 0.0000614 -0.0002343 0.0004732 -0.0000459 0.0003743 -0.0000007 0.0001996 -0.0000163 0.0001989 0.0002711 0.0000647 0.0000670 0.0002041 -0.0000223 0.0001886 0.0000168 0.0003747 -0.0001654 0.0006861 -0.0001573 0.0004170 -0.0000274 0.0003089 0.0000167 0.0002304 -0.0000551 0.0001838 -0.0003467 0.0007639 0.0000108 0.0000967 0.0000101 0.0000502 -0.0005770 0.0007151 -0.0000053 0.0002995 0.0006626 -0.0002004 0.0000406 0.0002463 0.0000021 0.0001084 -0.0000514 0.0001539 -0.0002907 0.0000373 -0.0000003 0.0001621 0.0000062 0.0002346 0.0047580 -0.0051167 0.0012369 -0.0006950 -0.0000047 0.0001958 0.0000129 0.0002315 -0.0000456 0.0000385 -0.0001409 0.0003463 0.0000030 0.0001379 -0.0000074 0.0000077 0.0000116 0.0001779 -0.0000124 -0.0001741 -0.0000732 0.0003518 -0.0000342 0.0000693 0.0000560 0.0002561 -0.0005078 -0.0002590 0.0000051 0.0001413 0.0000617 0.0002369 -0.0002705 0.0003379 -0.0000485 -0.0000299 0.0000162 0.0000882 -0.0002466 0.0003244 0.0000127 0.0001863
0.0000087 0.0000850 0.0002949 -0.0001500 -0.0057066 0.0044720 -0.0000205 0.0001435 0.0000050 0.0000855 -0.0000482 0.0002929 0.0011809 -0.0004294 0.0001690 0.0000064 0.0000635 0.0001033 0.0000539 0.0001870 -0.0000157 0.0002616 -0.0003477 0.0006711 0.0000127 0.0000236 0.0000088 0.0000509 0.0004947 -0.0001025 0.0000650 -0.0000075 0.0011729 -0.0005274 0.0000266 0.0001140 0.0000334 0.0000277 0.0000322 0.0000086 -0.0003589 0.0005357 0.0000234 0.0000656 0.0000389 0.0000947 0.0005965 -0.0003926 -0.0006448 -0.0000016 -0.0000815 0.0001701 -0.0000407 0.0000286 -0.0000401 0.0002640 -0.0009592 0.0017719 -0.0000504 0.0001852 0.0000247 0.0001303 -0.0000758 0.0003074 -0.0005911 -0.0009902 -0.0000728 0.0001884 0.0000106 0.0002102 -0.0001186 0.0001147 0.0013425 -0.0003081 -0.0000222 0.0002727 -0.0000012 0.0002466 -0.0000074 -0.0001516 -0.0000450 0.0001802 -0.0000631 -0.0000128 -0.0006229 0.0007266 -0.0000536 0.0002588 0.0000014 0.0001748 0.0000068 0.0001617 -0.0000089 0.0003118 0.0000380 0.0002050 -0.0000176 0.0001545 -0.0000139 0.0003063 0.0000135 -0.0001308 -0.0002919 0.0004586 -0.0000259 0.0002565 0.0000198 0.0001841 -0.0000458 0.0001133 -0.0003073 0.0006026 0.0000279 0.0000680 0.0000224 0.0000323 -0.0002454 0.0003986 0.0000204 0.0002025 -0.0004331 0.0004005 0.0000511 0.0002536 -0.0000037 0.0001006 -0.0000521 0.0001412 -0.0002610 0.0000382 0.0000208 0.0001072 0.0000279 0.0001832 0.0052566 -0.0059289 0.0015618 -0.0013086 -0.0000721 0.0002813 0.0000175 0.0002392 -0.0000616 0.0000798 -0.0000632 0.0001719 0.0000570 0.0001168 0.0000019 0.0000155 0.0000215 0.0001913 0.0007803 -0.0001177 -0.0000878 0.0004975 -0.0000303 0.0001281 0.0000336 0.0003787 -0.0011994 0.0009858 0.0000484 0.0001921 0.0000380 0.0002857 -0.0002141 0.0005561 -0.0000423 0.0000820 0.0000170 0.0001910 -0.0002236 0.0005414 0.0000477 0.0002165
-0.0000631 0.0003148 0.0001137 0.0003787 -0.0068990 0.0070629 0.0000039 0.0002721 0.0000061 0.0002313 -0.0000116 0.0003700 -0.0001975 0.0008778 0.0008628 -0.0001869 0.0000206 0.0002787 0.0000584 0.0002832 -0.0000110 0.0003754 -0.0005619 0.0010468 0.0000131 0.0001890 0.0000298 0.0001697 0.0005697 -0.0001313 -0.0000232 0.0002400 0.0005465 -0.0006163 -0.0000088 0.0003238 0.0000351 0.0001837 0.0000372 0.0001780 -0.0001642 0.0008289 0.0000301 0.0002291 0.0000980 0.0001942 -0.0013839 0.0010965 -0.0026040 0.0025200 0.0000570 0.0002805 -0.0000646 0.0001779 -0.0000474 0.0003891 -0.0034084 0.0031939 -0.0000947 0.0004434 0.0000067 0.0002869 -0.0000059 0.0004888 -0.0008326 0.0006313 -0.0000383 0.0003186 0.0000286 0.0003089 -0.0000793 0.0002029 0.0013136 -0.0009578 -0.0000357 0.0004584 -0.0000043 0.0004130 -0.0000223 0.0001562 -0.0000422 0.0003091 -0.0000603 0.0001078 -0.0000838 0.0005199 -0.0000532 0.0004452 0.0000093 0.0003077 -0.0000262 0.0004129 -0.0005336 0.0010261 -0.0000513 0.0003883 -0.0000114 0.0003497 -0.0000244 0.0004650 0.0005522 0.0002716 -0.0001593 0.0006150 -0.0000121 0.0004520 0.0000203 0.0003141 -0.0000538 0.0002853 -0.0002481 0.0007497 0.0000432 0.0002793 0.0000149 0.0002865 0.0001369 0.0001472 0.0000207 0.0003719 -0.0012088 0.0010505 0.0000510 0.0004633 -0.0000070 0.0003245 -0.0000286 0.0003782 -0.0001278 0.0004871 0.0000059 0.0002765 0.0000914 0.0002250 -0.0012456 -0.0001246 -0.0022396 0.0015307 -0.0000631 0.0004717 0.0000208 0.0003777 -0.0000743 0.0002337 -0.0000429 0.0004679 0.0000738 0.0002502 0.0000057 0.0001425 0.0000023 0.0003436 0.0011691 -0.0001190 -0.0000770 0.0005874 -0.0000187 0.0001694 0.0000205 0.0004066 -0.0015476 0.0014400 0.0000004 0.0003299 0.0000719 0.0003599 -0.0001925 0.0008338 -0.0000478 0.0000875 0.0000160 0.0001604 0.0002317 0.0002080 0.0000704 0.0002388
0.0000262 0.0003865 -0.0000408 0.0007048 -0.0026921 0.0036400 -0.0000131 0.0003626 0.0000015 0.0003057 -0.0000490 0.0004358 -0.0007638 0.0014332 0.0006050 0.0000637 -0.0000467 0.0003490 0.0000561 0.0003320 -0.0000341 0.0004347 -0.0006342 0.0011316 0.0000047 0.0002946 0.0000208 0.0002471 -0.0000648 0.0005177 -0.0000560 0.0003350 0.0016784 -0.0018973 0.0000033 0.0003490 0.0000231 0.0002397 0.0000319 0.0002236 0.0001053 0.0009100 0.0000096 0.0002956 0.0000378 0.0002795 -0.0009342 0.0007725 -0.0010052 0.0016703 0.0000094 0.0003935 -0.0000457 0.0001947 -0.0000579 0.0004300 -0.0025643 0.0020223 -0.0000228 0.0004332 -0.0000017 0.0002902 0.0000346 0.0004320 -0.0004028 0.0023050 -0.0000641 0.0003270 0.0000470 0.0002956 -0.0001455 0.0003112 0.0011600 -0.0001198 -0.0000102 0.0004554 -0.0000091 0.0003931 -0.0001617 0.0003264 -0.0000385 0.0002815 -0.0000569 0.0001060 -0.0001803 0.0006018 -0.0000471 0.0003671 0.0000048 0.0003302 -0.0000058 0.0004552 -0.0003780 0.0008180 -0.0000171 0.0004036 -0.0000090 0.0003918 -0.0000164 0.0005262 0.0017431 -0.0010681 0.0000345 0.0005170 -0.0000001 0.0004389 0.0000176 0.0003139 -0.0000653 0.0002888 -0.0001900 0.0006665 0.0000507 0.0003100 0.0000258 0.0003640 0.0002864 0.0002365 0.0000374 0.0003660 -0.0004059 0.0006018 0.0000183 0.0005146 -0.0000005 0.0003412 -0.0000288 0.0003971 -0.0001052 0.0003819 0.0000046 0.0002677 0.0000558 0.0002385 0.0001311 -0.0014744 -0.0043068 0.0039931 -0.0000303 0.0003923 0.0000169 0.0003504 -0.0000595 0.0001433 -0.0001700 0.0007008 0.0000252 0.0002164 -0.0000059 0.0000998 0.0000031 0.0002939 0.0002163 0.0002167 -0.0000125 0.0004086 -0.0000139 0.0000764 0.0000283 0.0002706 -0.0007127 0.0010176 -0.0000407 0.0002704 0.0000773 0.0002947 -0.0000273 0.0006142 -0.0000549 -0.0000273 0.0000057 0.0000555 0.0004217 -0.0001733 0.0000656 0.0001620
0.0001651 0.0002274 -0.0004063 0.0008091 0.0006234 0.0011578 -0.0000403 0.0003248 -0.0000087 0.0002614 -0.0000418 0.0003698 -0.0011771 0.0020029 0.0001418 0.0002832 -0.0000598 0.0002671 0.0000452 0.0002900 -0.0000403 0.0003569 -0.0003538 0.0006813 0.0000087 0.0002457 0.0000106 0.0001994 -0.0000783 0.0002495 -0.0000031 0.0002581 0.0014975 -0.0012660 0.0000072 0.0002720 0.0000272 0.0001821 0.0000023 0.0001781 -0.0000395 0.0004356 0.0000225 0.0002289 0.0000055 0.0002550 0.0002768 0.0002388 -0.0015254 0.0020627 -0.0000827 0.0003730 -0.0000385 0.0001208 -0.0000563 0.0003268 -0.0005404 0.0011955 -0.0000547 0.0003415 0.0000048 0.0002159 -0.0000366 0.0003455 -0.0008122 0.0017573 -0.0000740 0.0001881 0.0000168 0.0002049 -0.0001317 0.0003969 0.0005207 -0.0005491 0.0000392 0.0002597 -0.0000041 0.0002640 -0.0001206 0.0002294 -0.0000481 0.0001554 -0.0000180 0.0001252 -0.0001757 0.0003336 -0.0000289 0.0001957 0.0000187 0.0002441 0.0000559 0.0003529 0.0000236 0.0004839 0.0000006 0.0003413 0.0000249 0.0003135 0.0000015 0.0004351 0.0015648 -0.0012248 -0.0001484 0.0006254 -0.0000074 0.0003381 0.0000107 0.0002371 -0.0000620 0.0001907 -0.0002247 0.0005344 0.0000423 0.0002464 0.0000560 0.0002912 0.0001450 0.0003786 0.0000562 0.0002604 -0.0000857 0.0002744 0.0000419 0.0004359 -0.0000052 0.0002742 0.0000005 0.0002861 -0.0008183 0.0010116 0.0000231 0.0001725 -0.0000201 0.0002277 0.0049665 -0.0044615 -0.0022677 0.0024142 -0.0000469 0.0003330 -0.0000009 0.0003115 -0.0000589 0.0000741 -0.0002735 0.0005608 -0.0000099 0.0001776 -0.0000176 0.0000584 0.0000074 0.0002389 -0.0008104 0.0015091 -0.0000261 0.0004078 -0.0000284 0.0000894 0.0000398 0.0003018 0.0003994 0.0005506 -0.0000193 0.0002464 0.0000593 0.0002813 0.0004217 0.0000381 -0.0000651 0.0000509 -0.0000018 0.0001290 0.0000456 0.0002198 0.0000556 0.0001744
0.0001442 0.0003324 -0.0004477 0.0007283 0.0042281 -0.0010935 -0.0000013 0.0003987 -0.0000228 0.0003682 -0.0000212 0.0004378 -0.0012903 0.0023131 0.0000318 0.0004813 -0.0000687 0.0003876 0.0000268 0.0003551 -0.0000677 0.0004346 0.0000449 0.0005206 0.0000134 0.0003604 0.0000763 0.0002853 -0.0000637 0.0003062 -0.0000045 0.0004206 0.0001855 0.0007433 -0.0000548 0.0005095 0.0000160 0.0003166 -0.0000300 0.0003508 -0.0000216 0.0003757 0.0000420 0.0003422 0.0000010 0.0003885 -0.0003714 0.0013262 -0.0019304 0.0024879 -0.0000611 0.0005130 -0.0000520 0.0002305 -0.0000774 0.0003978 0.0013860 -0.0004174 -0.0000871 0.0005512 -0.0000099 0.0003614 -0.0000493 0.0005619 0.0000204 0.0007207 -0.0000536 0.0002711 -0.0000092 0.0002333 -0.0000084 0.0006059 -0.0004601 0.0007427 -0.0000316 0.0004239 -0.0000055 0.0003943 -0.0001819 0.0004284 -0.0000739 0.0002528 0.0000151 0.0003926 0.0000157 0.0003317 -0.0000418 0.0003797 0.0000289 0.0003486 0.0000456 0.0005502 -0.0004536 0.0013254 -0.0000255 0.0004692 0.0000491 0.0004626 -0.0000260 0.0006235 0.0019057 -0.0010996 0.0002730 0.0004833 -0.0000244 0.0005396 0.0000054 0.0003539 -0.0000728 0.0003500 -0.0001839 0.0005844 0.0000235 0.0004365 0.0000657 0.0004911 -0.0003263 0.0010192 0.0000589 0.0004169 0.0007048 -0.0001351 0.0000869 0.0005758 -0.0000074 0.0004570 -0.0000105 0.0004911 -0.0010178 0.0014085 0.0000147 0.0003175 -0.0000160 0.0003050 0.0040773 -0.0018663 -0.0025475 0.0025809 -0.0000279 0.0004910 0.0000050 0.0004331 -0.0000619 0.0002091 -0.0002288 0.0006370 0.0000192 0.0002957 -0.0000184 0.0001911 0.0000222 0.0003470 -0.0008425 0.0016840 -0.0000078 0.0004777 -0.0000398 0.0001398 0.0000513 0.0003057 0.0008742 -0.0000971 -0.0000574 0.0003393 0.0000697 0.0003466 -0.0000229 0.0003023 -0.0000635 0.0000364 -0.0000165 0.0001020 -0.0000955 0.0004567 0.0000481 0.0002100
0.0000715 0.0005047 0.0002782 0.0001413 0.0037594 -0.0023036 0.0000304 0.0004204 -0.0000103 0.0003727 -0.0000179 0.0004774 -0.0006101 0.0013384 -0.0001575 0.0006090 -0.0000870 0.0004453 0.0000275 0.0003762 -0.0000860 0.0004038 0.0000812 0.0005950 0.0000076 0.0004349 0.0001199 0.0003003 -0.0002846 0.0008642 0.0001011 0.0003934 -0.0000370 0.0006318 -0.0000071 0.0005175 0.0000078 0.0003463 -0.0000351 0.0003756 -0.0002458 0.0007034 0.0000428 0.0003816 0.0000413 0.0003655 0.0008769 0.0000117 -0.0003057 -0.0000586 0.0000092 0.0004790 -0.0000648 0.0002548 -0.0000963 0.0004030 0.0019447 -0.0010102 -0.0000610 0.0004827 -0.0000035 0.0003515 -0.0000092 0.0005707 0.0020328 -0.0003143 -0.0000895 0.0002834 0.0000137 0.0001706 0.0000118 0.0005686 0.0008219 -0.0001746 -0.0000626 0.0004255 -0.0000134 0.0003508 -0.0002076 0.0005009 -0.0000879 0.0002044 0.0000186 0.0003705 -0.0001508 0.0004241 -0.0000507 0.0002841 0.0000125 0.0003559 0.0000155 0.0005746 -0.0007702 0.0014143 0.0000026 0.0004155 0.0000488 0.0004693 0.0000241 0.0006013 0.0007341 -0.0006875 0.0001318 0.0005448 -0.0000244 0.0005024 0.0000072 0.0003362 -0.0000832 0.0003183 -0.0002261 0.0005097 0.0000178 0.0004465 0.0000655 0.0005159 -0.0004067 0.0010729 0.0000638 0.0004337 0.0003996 0.0004158 0.0001016 0.0006103 -0.0000012 0.0004313 -0.0000266 0.0004630 0.0001671 -0.0000347 -0.0000019 0.0003128 -0.0000610 0.0002948 -0.0008602 0.0037223 -0.0010390 0.0016987 -0.0000594 0.0004704 0.0000155 0.0003820 -0.0000652 0.0001500 -0.0001902 0.0004797 0.0000058 0.0002695 -0.0000105 0.0001380 0.0000079 0.0002626 -0.0002439 0.0008665 -0.0000323 0.0004231 -0.0000318 0.0000468 0.0000230 0.0002226 0.0001807 0.0002003 -0.0001035 0.0003107 0.0000765 0.0002576 -0.0003317 0.0002610 -0.0000584 -0.0000972 -0.0000100 -0.0000148 -0.0001299 0.0003152 0.0000451 0.0001063
-0.0000408 0.0004743 0.0000414 0.0004014 -0.0032036 0.0005981 0.0000298 0.0003357 -0.0000067 0.0002872 -0.0000006 0.0003859 -0.0003964 0.0010038 -0.0000559 0.0004982 -0.0000467 0.0003291 0.0000383 0.0003095 -0.0000960 0.0003084 -0.0000873 0.0004889 0.0000075 0.0003743 0.0000636 0.0002766 -0.0001943 0.0005038 0.0001833 0.0002636 -0.0008935 0.0011039 0.0000596 0.0003691 0.0000260 0.0002602 -0.0000237 0.0002725 -0.0008563 0.0011940 0.0000291 0.0003300 0.0000727 0.0002649 0.0005866 -0.0000966 -0.0009149 0.0001779 -0.0000258 0.0003593 -0.0000511 0.0001580 -0.0000879 0.0003159 -0.0015929 0.0008567 -0.0000523 0.0003441 -0.0000001 0.0002602 -0.0000366 0.0004497 -0.0001508 0.0012637 -0.0000872 0.0001857 0.0000210 0.0000819 -0.0000589 0.0003480 0.0002866 0.0005253 -0.0000755 0.0003349 0.0000001 0.0002179 -0.0001460 0.0002828 -0.0000826 0.0000590 0.0000093 0.0001540 -0.0000513 0.0003036 -0.0000418 0.0001177 -0.0000140 0.0002645 -0.0000001 0.0004846 0.0000147 0.0004900 0.0000390 0.0002781 0.0000560 0.0003667 0.0000742 0.0004296 0.0008080 0.0000098 -0.0002562 0.0006491 -0.0000269 0.0003697 0.0000071 0.0002363 -0.0000845 0.0001678 -0.0001814 0.0003147 0.0000248 0.0003260 0.0000561 0.0004047 0.0001863 0.0005264 0.0000509 0.0003555 0.0000117 0.0006279 0.0001211 0.0005121 0.0000005 0.0003083 -0.0000099 0.0003233 0.0005521 -0.0003989 -0.0000107 0.0002316 -0.0000888 0.0002483 -0.0002320 0.0014789 -0.0032482 0.0037680 -0.0000555 0.0003808 0.0000126 0.0003156 -0.0000809 0.0000807 -0.0001797 0.0001945 -0.0000108 0.0002327 0.0000001 0.0000724 -0.0000061 0.0002126 -0.0004552 0.0005077 -0.0000679 0.0004241 -0.0000227 0.0000370 0.0000328 0.0002587 -0.0004309 0.0004063 -0.0000935 0.0003085 0.0000595 0.0002187 -0.0001993 0.0002704 -0.0000548 -0.0000303 -0.0000035 0.0000600 -0.0002577 0.0004527 0.0000353 0.0000826
-0.0001137 0.0005690 -0.0004796 0.0009558 -0.0122105 0.0096181 0.0000207 0.0004425 -0.0000075 0.0003818 -0.0000082 0.0004566 0.0002934 0.0006358 0.0004713 0.0001856 -0.0000196 0.0004127 0.0000385 0.0003552 -0.0000737 0.0003896 -0.0000130 0.0003697 -0.0000066 0.0004908 -0.0000228 0.0005029 -0.0002221 0.0004538 0.0000527 0.0004930 -0.0012365 0.0016075 0.0000874 0.0005039 0.0000212 0.0003833 -0.0000280 0.0004155 -0.0008040 0.0014236 0.0000147 0.0004560 0.0000509 0.0004356 -0.0003111 0.0005824 0.0010040 -0.0004912 -0.0000349 0.0005297 -0.0000404 0.0002443 -0.0000571 0.0004324 -0.0021536 0.0015282 -0.0001201 0.0006764 0.0000053 0.0003824 -0.0000287 0.0005854 -0.0015235 0.0023537 -0.0000139 0.0002610 -0.0000169 0.0002021 -0.0000886 0.0003007 0.0013378 0.0013711 -0.0000704 0.0004861 0.0000145 0.0003715 -0.0003211 0.0004159 -0.0000782 0.0001442 -0.0000199 0.0001572 -0.0003874 0.0009503 -0.0000491 0.0003615 -0.0000344 0.0003634 0.0000059 0.0006332 0.0001084 0.0007261 0.0000209 0.0004067 0.0000440 0.0005046 0.0000525 0.0005357 0.0009084 -0.0004879 -0.0002728 0.0007720 -0.0000255 0.0005095 0.0000036 0.0003275 -0.0000911 0.0002655 -0.0002074 0.0003955 0.0000386 0.0004306 0.0000651 0.0005340 0.0006725 0.0002111 0.0000510 0.0004733 0.0001759 0.0002775 0.0000726 0.0006370 -0.0000076 0.0003969 -0.0000151 0.0004053 -0.0000598 0.0003652 -0.0000046 0.0003089 -0.0000394 0.0002914 0.0016504 -0.0014257 -0.0010880 0.0021874 -0.0000479 0.0004002 0.0000191 0.0003306 -0.0000719 0.0000639 -0.0002960 0.0001946 -0.0000082 0.0002542 -0.0000006 0.0001007 0.0000277 0.0002381 -0.0004109 0.0003639 0.0000102 0.0003314 -0.0000541 0.0000279 0.0000473 0.0001856 -0.0000599 0.0001618 -0.0000330 0.0002113 0.0000326 0.0002429 -0.0001002 0.0005476 -0.0000727 -0.0000638 -0.0000135 0.0000317 -0.0003071 0.0004753 0.0000001 0.0000880
-0.0001485 0.0006581 -0.0003363 0.0008508 -0.0057971 0.0058840 0.0000061 0.0004832 -0.0000052 0.0003906 -0.0000061 0.0004214 0.0003541 0.0001795 -0.0000877 0.0006714 -0.0000648 0.0004611 0.0000230 0.0003674 -0.0000737 0.0003837 0.0002519 0.0001376 -0.0000116 0.0005242 -0.0000090 0.0005174 -0.0006898 0.0007920 -0.0000712 0.0006137 -0.0002305 0.0003739 0.0000425 0.0005428 0.0000129 0.0003927 0.0000039 0.0003909 -0.0006928 0.0010534 0.0000180 0.0004547 -0.0000026 0.0004949 0.0009386 -0.0008554 0.0019250 -0.0015709 -0.0000472 0.0005666 -0.0000421 0.0002538 -0.0000454 0.0004229 0.0004935 0.0000504 -0.0001196 0.0006262 0.0000068 0.0003696 -0.0000194 0.0005536 -0.0022704 0.0026608 -0.0000260 0.0002627 -0.0000282 0.0001969 -0.0000866 0.0001958 0.0024336 0.0000878 -0.0000592 0.0004559 0.0000180 0.0003390 -0.0002533 0.0004824 -0.0000784 0.0000948 -0.0000408 0.0000967 -0.0005512 0.0008348 -0.0000488 0.0003134 -0.0000226 0.0003343 0.0000158 0.0005628 0.0002072 0.0006662 0.0000228 0.0003749 0.0000158 0.0004991 0.0000564 0.0004978 -0.0001005 -0.0001339 -0.0002707 0.0007533 -0.0000154 0.0004521 0.0000079 0.0003024 -0.0000973 0.0002287 -0.0002030 0.0003668 0.0000288 0.0004309 0.0000413 0.0005187 0.0000910 0.0004328 0.0000715 0.0004536 -0.0011341 0.0010565 0.0000883 0.0006323 -0.0000049 0.0003453 -0.0000472 0.0003484 -0.0002514 0.0004801 0.0000050 0.0002837 -0.0000365 0.0002763 0.0024067 0.0005171 0.0025563 -0.0024311 -0.0000753 0.0003587 0.0000124 0.0002840 -0.0000645 -0.0000174 -0.0001003 0.0000487 -0.0000280 0.0002134 -0.0000095 0.0000578 0.0000108 0.0001703 0.0002342 0.0000724 0.0000244 0.0002204 -0.0000690 -0.0000556 0.0000352 0.0000701 -0.0012730 0.0020366 0.0000321 0.0000716 0.0000373 0.0001595 0.0001796 0.0001937 -0.0000847 -0.0001907 0.0000097 -0.0000869 -0.0001545 0.0002258 -0.0000107 0.0000136
-0.0000259 0.0004979 0.0001309 0.0002518 0.0029021 -0.0014293 -0.0000216 0.0004252 -0.0000188 0.0003156 0.0000443 0.0002965 0.0002140 -0.0001738 -0.0004386 0.0006739 -0.0000843 0.0003695 0.0000210 0.0003004 -0.0000994 0.0002902 0.0002477 0.0001093 -0.0000106 0.0004475 -0.0000095 0.0004207 -0.0008321 0.0008138 -0.0000364 0.0005269 0.0009483 -0.0005519 -0.0000151 0.0005107 0.0000098 0.0003141 0.0000072 0.0002930 0.0001336 0.0002170 0.0000090 0.0003821 -0.0000249 0.0003868 0.0002797 -0.0004999 0.0001891 -0.0005984 -0.0000810 0.0004449 -0.0000520 0.0001829 -0.0001367 0.0003560 0.0005519 -0.0022673 -0.0001038 0.0004372 -0.0000023 0.0002881 -0.0000125 0.0004618 -0.0007050 0.0019262 -0.0000975 0.0002079 -0.0000076 0.0000853 -0.0001407 0.0000983 -0.0011809 0.0015391 -0.0000460 0.0003625 0.0000069 0.0002411 -0.0006238 0.0005461 -0.0000721 -0.0000197 -0.0000604 -0.0000098 -0.0001219 0.0004198 -0.0000653 0.0001911 -0.0000113 0.0002253 0.0000061 0.0004197 0.0001982 0.0002381 0.0000765 0.0002185 -0.0000051 0.0003994 0.0000359 0.0004706 -0.0001007 -0.0000297 -0.0002066 0.0006831 -0.0000186 0.0003456 0.0000063 0.0002256 -0.0000993 0.0001232 -0.0001268 0.0001986 0.0000173 0.0003559 0.0000089 0.0004576 -0.0001843 0.0004465 0.0000380 0.0004268 -0.0001236 0.0002662 0.0000783 0.0006086 -0.0000135 0.0003126 -0.0000586 0.0003125 0.0001409 0.0001596 -0.0000068 0.0002740 0.0000134 0.0002353 0.0027494 -0.0017531 0.0015499 -0.0017582 -0.0000531 0.0003955 0.0000064 0.0003376 -0.0000741 0.0000534 0.0000670 0.0001417 -0.0000236 0.0002570 -0.0000221 0.0001345 0.0000246 0.0001891 0.0001804 0.0004194 -0.0000614 0.0004302 -0.0000605 0.0000263 0.0000236 0.0002278 -0.0020165 0.0025979 0.0000056 0.0002131 0.0000344 0.0002099 0.0000736 0.0003461 -0.0000822 -0.0000663 0.0000109 0.0000532 0.0001070 0.0001592 0.0000290 0.0000511
0.0000030 0.0005721 0.0004127 -0.0000022 0.0024360 0.0001205 -0.0000328 0.0005631 -0.0000309 0.0004395 -0.0000038 0.0004713 0.0001924 0.0001359 -0.0002430 0.0006588 -0.0000287 0.0004281 0.0000268 0.0003668 -0.0001138 0.0004063 -0.0003369 0.0006040 0.0000006 0.0005493 -0.0000340 0.0005464 0.0000260 0.0003247 -0.0000332 0.0007031 0.0015209 0.0000712 0.0000118 0.0006552 0.0000164 0.0004356 -0.0000274 0.0004574 0.0008111 0.0000782 0.0000221 0.0005026 0.0000208 0.0004900 -0.0010087 0.0009939 -0.0022743 0.0013729 -0.0000496 0.0005650 -0.0000627 0.0002866 -0.0001253 0.0004361 -0.0014852 -0.0010591 -0.0000432 0.0005597 -0.0000069 0.0004117 -0.0000317 0.0006571 0.0011239 -0.0000677 -0.0001063 0.0002456 -0.0000227 0.0001313 -0.0001362 0.0001548 -0.0006879 0.0012133 -0.0000213 0.0004350 -0.0000066 0.0003364 -0.0007532 0.0005585 -0.0000763 0.0000195 -0.0000587 0.0000310 -0.0000243 0.0005484 -0.0000560 0.0002541 -0.0000125 0.0002410 0.0000103 0.0004271 0.0001265 0.0002430 -0.0000192 0.0003104 -0.0000092 0.0003933 0.0000522 0.0004255 -0.0007331 0.0005079 0.0001865 0.0004326 -0.0000320 0.0003285 0.0000033 0.0002202 -0.0001031 0.0000829 -0.0000431 0.0000457 0.0000235 0.0003299 0.0000412 0.0004032 -0.0002177 0.0003613 0.0000071 0.0004244 0.0002039 0.0003853 0.0000663 0.0005836 -0.0000242 0.0003119 -0.0000386 0.0002821 -0.0000290 0.0001179 -0.0000249 0.0002546 0.0000361 0.0002044 0.0008303 -0.0001633 -0.0010869 0.0001975 -0.0000695 0.0003722 0.0000134 0.0002954 -0.0000905 0.0000140 -0.0002145 0.0002483 -0.0000081 0.0001833 -0.0000275 0.0001074 0.0000513 0.0001130 -0.0002863 0.0008391 -0.0001427 0.0004548 -0.0000638 -0.0000279 0.0000063 0.0001723 -0.0019072 0.0017950 -0.0000483 0.0002346 0.0000198 0.0001956 -0.0000555 0.0003898 -0.0000892 -0.0001217 -0.0000196 0.0000439 0.0001617 0.0000084 0.0000551 0.0000141
-0.0001709 0.0006419 0.0001267 0.0002756 0.0035691 -0.0014954 -0.0000227 0.0005377 -0.0000264 0.0003868 -0.0000270 0.0004563 -0.0001416 0.0001943 -0.0001195 0.0005863 0.0000232 0.0003516 0.0000232 0.0003408 -0.0001011 0.0003653 -0.0005136 0.0004835 0.0000085 0.0005038 -0.0000099 0.0005128 0.0000812 0.0007254 0.0000087 0.0006452 -0.0010744 0.0022381 0.0000163 0.0005795 0.0000213 0.0003892 -0.0000098 0.0004009 0.0002451 0.0003075 0.0000365 0.0004445 0.0000330 0.0004311 0.0007108 -0.0005709 -0.0040799 0.0021551 -0.0000468 0.0005045 -0.0000465 0.0002343 -0.0000811 0.0003534 -0.0015620 0.0004875 -0.0000303 0.0005184 -0.0000189 0.0003869 -0.0000877 0.0005984 0.0011030 -0.0008508 -0.0000563 0.0000989 -0.0000216 0.0000602 -0.0000619 0.0000031 -0.0010348 0.0024917 -0.0000984 0.0004150 -0.0000177 0.0002781 -0.0001643 0.0000445 -0.0000775 -0.0000456 -0.0000393 -0.0000363 -0.0002075 0.0005331 -0.0000503 0.0001719 -0.0000057 0.0001735 0.0000432 0.0003131 0.0005181 0.0001276 -0.0000771 0.0002899 -0.0000176 0.0003137 0.0001235 0.0002453 -0.0007486 0.0003211 0.0004098 0.0000085 -0.0000437 0.0002486 0.0000020 0.0001600 -0.0001077 -0.0000305 -0.0002445 -0.0000320 0.0000122 0.0002628 0.0000386 0.0003081 -0.0003962 0.0003696 0.0000182 0.0003086 0.0007105 0.0001885 0.0001225 0.0004190 -0.0000187 0.0002129 -0.0000451 0.0001964 -0.0003221 0.0001840 -0.0000133 0.0001649 -0.0000023 0.0001532 0.0010818 -0.0007828 -0.0017091 0.0013739 -0.0000464 0.0002388 0.0000075 0.0001971 -0.0000970 -0.0001022 -0.0000620 0.0000329 -0.0000010 0.0000627 -0.0000255 0.0000190 0.0000015 0.0000645 -0.0002629 0.0007425 -0.0001362 0.0002483 -0.0000643 -0.0001402 0.0000069 0.0000293 0.0003007 0.0002382 0.0000137 0.0000575 0.0000129 0.0001002 -0.0002678 0.0003715 -0.0000862 -0.0002568 -0.0000276 -0.0000790 0.0002100 -0.0001723 0.0000444 -0.0000951
-0.0001346 0.0004148 0.0002546 0.0002116 0.0033561 -0.0010065 -0.0000510 0.0004267 0.0000002 0.0002470 0.0000418 0.0002487 -0.0004128 -0.0000504 -0.0001391 0.0004968 -0.0000006 0.0002804 0.0000195 0.0002469 -0.0000535 0.0001856 -0.0003181 0.0003734 0.0000141 0.0003677 -0.0000130 0.0004023 -0.0009271 0.0016612 0.0000689 0.0004062 -0.0020254 0.0025145 0.0000122 0.0004020 0.0000065 0.0002770 -0.0000190 0.0002836 -0.0002564 0.0001411 0.0000232 0.0003299 0.0000119 0.0003166 0.0015719 -0.0015236 -0.0015388 0.0009145 0.0000488 0.0003091 -0.0000378 0.0001298 -0.0000278 0.0002074 -0.0010557 0.0007735 -0.0000722 0.0004566 -0.0000259 0.0002930 -0.0000472 0.0004264 -0.0002100 0.0007679 -0.0000316 0.0000127 -0.0000369 -0.0000136 -0.0000702 -0.0000971 -0.0013922 0.0024438 -0.0000573 0.0003055 -0.0000163 0.0002381 0.0001326 -0.0001356 -0.0000864 -0.0000553 -0.0000459 -0.0000767 -0.0002340 0.0004853 -0.0000728 0.0002103 0.0000019 0.0001506 0.0000503 0.0003179 0.0001085 0.0005691 -0.0000521 0.0002489 -0.0000341 0.0003284 0.0000951 0.0003033 -0.0016763 0.0008582 -0.0000666 0.0003519 -0.0000399 0.0003172 -0.0000048 0.0001857 -0.0001166 0.0000221 -0.0004212 0.0003299 0.0000226 0.0002922 0.0000098 0.0004000 -0.0001700 0.0002670 -0.0000255 0.0003993 0.0015756 -0.0008277 0.0001664 0.0004261 -0.0000211 0.0002763 -0.0000595 0.0002863 -0.0001995 0.0002111 -0.0000003 0.0002297 -0.0000368 0.0002241 -0.0036976 0.0006133 -0.0015101 0.0018788 -0.0000124 0.0003362 0.0000007 0.0003033 -0.0001010 0.0000410 -0.0000088 0.0001888 0.0000328 0.0001430 -0.0000185 0.0001375 -0.0000091 0.0002311 0.0005183 -0.0001522 -0.0000492 0.0003004 -0.0000573 -0.0000480 0.0000030 0.0001782 0.0018982 -0.0012618 0.0000504 0.0001130 0.0000294 0.0001593 -0.0000063 0.0001298 -0.0000838 -0.0002009 -0.0000084 -0.0000556 0.0001942 -0.0001047 0.0000133 -0.0000289
-0.0000753 0.0004251 0.0004702 0.0000501 -0.0007538 0.0004710 -0.0000244 0.0003624 -0.0000069 0.0002816 0.0000517 0.0002258 0.0001421 -0.0000581 -0.0003948 0.0005604 -0.0000760 0.0003191 0.0000122 0.0002323 -0.0000494 0.0001299 -0.0002285 0.0002924 0.0000108 0.0003173 -0.0000171 0.0003236 -0.0003538 0.0009028 0.0001189 0.0002849 -0.0003259 0.0000221 0.0000391 0.0002858 -0.0000138 0.0002230 -0.0000677 0.0002408 -0.0002619 0.0000394 0.0000060 0.0002832 -0.0000012 0.0002615 0.0005272 -0.0006009 -0.0004294 0.0007340 0.0000709 0.0002397 -0.0000529 0.0000901 0.0000327 0.0001229 0.0003800 -0.0000531 -0.0000593 0.0003341 -0.0000243 0.0002192 -0.0000200 0.0003437 -0.0022512 0.0011965 -0.0000458 -0.0000118 -0.0000564 -0.0000468 -0.0001066 -0.0001599 0.0027564 -0.0023546 -0.0000096 0.0001679 -0.0000105 0.0001554 0.0000621 -0.0001965 -0.0000789 -0.0001236 -0.0000521 -0.0001325 -0.0002671 0.0002396 -0.0000687 0.0001205 0.0000115 0.0000765 0.0000479 0.0002153 -0.0000997 0.0004756 -0.0000495 0.0001803 -0.0000213 0.0002357 -0.0000060 0.0003040 0.0005859 -0.0003801 0.0000543 0.0003479 -0.0000361 0.0002303 0.0000008 0.0001221 -0.0001164 -0.0000528 -0.0002443 0.0002032 0.0000054 0.0002129 -0.0000208 0.0003303 0.0001517 0.0000276 -0.0000296 0.0003289 0.0002881 -0.0001697 0.0000772 0.0003930 -0.0000223 0.0002100 -0.0000503 0.0001968 -0.0002027 -0.0001453 -0.0000149 0.0001804 -0.0000001 0.0001161 -0.0059581 0.0037091 -0.0034734 0.0018450 -0.0000450 0.0002858 -0.0000049 0.0002471 -0.0001051 -0.0000356 -0.0000539 0.0000105 0.0000258 0.0000757 -0.0000167 0.0000829 0.0000754 0.0000774 0.0002684 -0.0002201 0.0000117 0.0001195 -0.0000623 -0.0001299 -0.0000064 0.0000908 0.0014504 -0.0013490 0.0000450 0.0000451 0.0000416 0.0000808 0.0000272 -0.0002523 -0.0000816 -0.0002958 -0.0000092 -0.0001229 0.0002037 -0.0003046 0.0000227 -0.0000703
-0.0000947 0.0003195 0.0001455 0.0001652 -0.0054661 0.0014909 0.0000211 0.0001783 -0.0000017 0.0001627 -0.0000112 0.0001495 0.0000667 0.0005746 -0.0003704 0.0001559 -0.0000404 0.0001455 0.0000115 0.0001419 -0.0000825 0.0000544 -0.0002312 0.0000584 -0.0000011 0.0001924 -0.0000116 0.0001607 0.0000300 -0.0001329 0.0000518 0.0002133 0.0008096 -0.0008424 0.0000146 0.0001512 -0.0000323 0.0001098 -0.0000737 0.0000835 -0.0000847 0.0000943 0.0000254 0.0001282 0.0000414 0.0000884 -0.0012980 0.0009927 -0.0004260 -0.0004106 0.0000091 0.0001257 -0.0000680 0.0000005 -0.0000493 0.0000627 0.0006885 -0.0009836 -0.0000221 0.0002284 -0.0000224 0.0001147 0.0000321 0.0001416 -0.0018888 0.0007079 -0.0000822 -0.0001355 -0.0000482 -0.0001478 -0.0000860 -0.0003053 0.0023310 -0.0030372 0.0000189 -0.0000110 -0.0000139 0.0000182 -0.0001213 -0.0003795 -0.0000773 -0.0002542 -0.0000563 -0.0002203 -0.0001674 -0.0001491 -0.0000798 -0.0000072 0.0000167 -0.0000609 0.0000260 0.0000325 -0.0000519 0.0000984 -0.0000341 0.0000308 0.0000062 0.0000600 0.0000402 0.0000800 0.0005705 -0.0002102 0.0003776 -0.0001500 -0.0000217 0.0000509 -0.0000030 0.0000161 -0.0001009 -0.0002291 -0.0001262 -0.0000931 -0.0000297 0.0000563 -0.0000323 0.0001233 0.0002675 0.0000864 0.0000075 0.0001679 -0.0002429 0.0003313 0.0000051 0.0002395 -0.0000219 0.0000360 -0.0000395 0.0000127 -0.0001325 -0.0004181 -0.0000379 0.0000781 0.0000319 0.0000098 -0.0039126 0.0009858 -0.0017068 0.0007136 -0.0000408 0.0001343 -0.0000210 0.0001254 -0.0000861 -0.0002206 -0.0000146 -0.0002892 0.0000132 -0.0000518 -0.0000271 -0.0000246 0.0000570 -0.0000823 -0.0006072 0.0009505 0.0000263 -0.0001045 -0.0000588 -0.0002539 -0.0000246 -0.0000021 0.0008409 -0.0004191 0.0000591 -0.0000874 0.0000072 -0.0000121 0.0000267 -0.0002044 -0.0000786 -0.0003351 -0.0000298 -0.0001007 0.0001524 -0.0003017 -0.0000217 -0.0001012
